1.933269999999999982e+03	6.556799999999999272e+03
1.931720000000000027e+03	6.104900000026783346e+03
1.930180000000000064e+03	6.542089998548472067e+03
1.928630000000000109e+03	6.409905786919435741e+03
1.927079999999999927e+03	6.322605616130116687e+03
1.925539999999999964e+03	6.449382550483554951e+03
1.923990000000000009e+03	6.413720499581136210e+03
1.922440000000000055e+03	6.505575089097585987e+03
1.920900000000000091e+03	6.463538111873004709e+03
1.919349999999999909e+03	6.570149869766855772e+03
1.917799999999999955e+03	6.292644367267711459e+03
1.916250000000000000e+03	6.383282487282077454e+03
1.914710000000000036e+03	6.367789157223074653e+03
1.913160000000000082e+03	6.248921626118054519e+03
1.911609999999999900e+03	6.501186960509732671e+03
1.910059999999999945e+03	6.558304196514030991e+03
1.908509999999999991e+03	6.446093114140632679e+03
1.906960000000000036e+03	6.264707591402364415e+03
1.905410000000000082e+03	6.577498852549824733e+03
1.903859999999999900e+03	6.680297886224625472e+03
1.902309999999999945e+03	6.361700653994795175e+03
1.900750000000000000e+03	6.606698098774736536e+03
1.899200000000000045e+03	6.464300082475380805e+03
1.897650000000000091e+03	6.551199481886283138e+03
1.896099999999999909e+03	6.299402656101711727e+03
1.894549999999999955e+03	6.415194794862159142e+03
1.892990000000000009e+03	6.360102948495697092e+03
1.891440000000000055e+03	6.543395915738950862e+03
1.889890000000000100e+03	6.448298725233174082e+03
1.888329999999999927e+03	6.356407161900184292e+03
1.886779999999999973e+03	6.664888760089097559e+03
1.885220000000000027e+03	6.616203956841994113e+03
1.883670000000000073e+03	6.538997419576004177e+03
1.882109999999999900e+03	6.525805131982789135e+03
1.880559999999999945e+03	6.616688083037744036e+03
1.879000000000000000e+03	6.468711771441597193e+03
1.877450000000000045e+03	6.486582046555116904e+03
1.875890000000000100e+03	6.282715946982812966e+03
1.874329999999999927e+03	6.404787958104211611e+03
1.872779999999999973e+03	6.400116183823777646e+03
1.871220000000000027e+03	6.613389363276738550e+03
1.869660000000000082e+03	6.461597885442330153e+03
1.868099999999999909e+03	6.314710500527277873e+03
1.866549999999999955e+03	6.697787485797520276e+03
1.864990000000000009e+03	6.719198602148037025e+03
1.863430000000000064e+03	6.629410038628875554e+03
1.861869999999999891e+03	6.809988571271016554e+03
1.860309999999999945e+03	6.490207675792185000e+03
1.858750000000000000e+03	6.602496775165325744e+03
1.857190000000000055e+03	6.578101427389947276e+03
1.855630000000000109e+03	6.525598779415725403e+03
1.854069999999999936e+03	6.285600580338679720e+03
1.852509999999999991e+03	6.692799986099342277e+03
1.850950000000000045e+03	6.576700209892273051e+03
1.849380000000000109e+03	6.652995162509558213e+03
1.847819999999999936e+03	6.461104080789720683e+03
1.846259999999999991e+03	6.665405152452123730e+03
1.844700000000000045e+03	6.952580539851066533e+03
1.843130000000000109e+03	6.409632179748550698e+03
1.841569999999999936e+03	6.498893243665043883e+03
1.840009999999999991e+03	6.726990607321116840e+03
1.838440000000000055e+03	6.583402523141285201e+03
1.836880000000000109e+03	6.341400281620066380e+03
1.835309999999999945e+03	6.300515549493563412e+03
1.833750000000000000e+03	6.535185747392994017e+03
1.832180000000000064e+03	6.564600107964023664e+03
1.830619999999999891e+03	6.373093240559561309e+03
1.829049999999999955e+03	6.180713427892083018e+03
1.827490000000000009e+03	6.342503713218618032e+03
1.825920000000000073e+03	6.483177781162547035e+03
1.824349999999999909e+03	6.288518080899988490e+03
1.822789999999999964e+03	6.594687343990006411e+03
1.821220000000000027e+03	6.502501975446985853e+03
1.819650000000000091e+03	6.492899964075594653e+03
1.818079999999999927e+03	6.418203449777997776e+03
1.816509999999999991e+03	6.606087433621935816e+03
1.814940000000000055e+03	6.492318375070052753e+03
1.813380000000000109e+03	6.690196661421322460e+03
1.811809999999999945e+03	6.788879315952775869e+03
1.810240000000000009e+03	6.523828885407968301e+03
1.808670000000000073e+03	6.524083463761837265e+03
1.807099999999999909e+03	6.513206822670766996e+03
1.805519999999999982e+03	6.539993891297930531e+03
1.803950000000000045e+03	6.620312200780635976e+03
1.802380000000000109e+03	6.776189297397812879e+03
1.800809999999999945e+03	6.436701916105820601e+03
1.799240000000000009e+03	6.689999470444869985e+03
1.797670000000000073e+03	6.700001881374623736e+03
1.796089999999999918e+03	6.666900164896821479e+03
1.794519999999999982e+03	6.649694192678316540e+03
1.792950000000000045e+03	6.623120187781970344e+03
1.791369999999999891e+03	6.659556663333099095e+03
1.789799999999999955e+03	6.414548209238653726e+03
1.788220000000000027e+03	6.683083006093766016e+03
1.786650000000000091e+03	6.624598328437417877e+03
1.785069999999999936e+03	6.333100220820037066e+03
1.783500000000000000e+03	6.337799665599132823e+03
1.781920000000000073e+03	6.517908249999766667e+03
1.780349999999999909e+03	6.796377452874656228e+03
1.778769999999999982e+03	6.555817051857884508e+03
1.777190000000000055e+03	6.481521179519951147e+03
1.775619999999999891e+03	6.598954173352282851e+03
1.774039999999999964e+03	6.327331242835651210e+03
1.772460000000000036e+03	6.543694580872415827e+03
1.770880000000000109e+03	6.452099995942410715e+03
1.769309999999999945e+03	6.333903846899530436e+03
1.767730000000000018e+03	6.554178279798828953e+03
1.766150000000000091e+03	6.492036480768118963e+03
1.764569999999999936e+03	6.674662459037417648e+03
1.762990000000000009e+03	6.616121852538482017e+03
1.761410000000000082e+03	6.780398724116203084e+03
1.759829999999999927e+03	6.864998482674706793e+03
1.758250000000000000e+03	6.627500719084500815e+03
1.756670000000000073e+03	6.578099230731746502e+03
1.755079999999999927e+03	6.631996890683591118e+03
1.753500000000000000e+03	6.628707585333551833e+03
1.751920000000000073e+03	6.507674043843529034e+03
1.750339999999999918e+03	6.275524815831851811e+03
1.748759999999999991e+03	6.645396523187501771e+03
1.747170000000000073e+03	6.527307452993488369e+03
1.745589999999999918e+03	6.567781057887864335e+03
1.744009999999999991e+03	6.562742018249044122e+03
1.742420000000000073e+03	6.806843372694276695e+03
1.740839999999999918e+03	6.537133772488088653e+03
1.739250000000000000e+03	6.661997531623034774e+03
1.737670000000000073e+03	6.583000851729672831e+03
1.736079999999999927e+03	6.513489297637457639e+03
1.734500000000000000e+03	6.432621935667530124e+03
1.732910000000000082e+03	6.719495038136722542e+03
1.731329999999999927e+03	6.896986615663683551e+03
1.729740000000000009e+03	6.708402534377581105e+03
1.728150000000000091e+03	6.610493577786088281e+03
1.726559999999999945e+03	6.422555050449903320e+03
1.724980000000000018e+03	6.876311461034790227e+03
1.723390000000000100e+03	6.626366943308368718e+03
1.721799999999999955e+03	6.760280581472138692e+03
1.720210000000000036e+03	6.485200345980385464e+03
1.718619999999999891e+03	6.603088699248000921e+03
1.717029999999999973e+03	6.691218660814880423e+03
1.715440000000000055e+03	6.735270134167044489e+03
1.713849999999999909e+03	6.470613413886473609e+03
1.712259999999999991e+03	6.545299991612504527e+03
1.710670000000000073e+03	6.593305872917999295e+03
1.709079999999999927e+03	6.657874122300580893e+03
1.707490000000000009e+03	6.589045416034839036e+03
1.705900000000000091e+03	6.856775386080616954e+03
1.704309999999999945e+03	6.627000400916846047e+03
1.702710000000000036e+03	6.655108970320903609e+03
1.701119999999999891e+03	6.801138183770224714e+03
1.699529999999999973e+03	6.422375362848534678e+03
1.697930000000000064e+03	6.787786651999549576e+03
1.696339999999999918e+03	6.713901227148083308e+03
1.694750000000000000e+03	6.547075465901283678e+03
1.693150000000000091e+03	6.194862230298799659e+03
1.691559999999999945e+03	6.618677750868640942e+03
1.689960000000000036e+03	6.735199048519019925e+03
1.688369999999999891e+03	6.519312105321995659e+03
1.686769999999999982e+03	6.835350683884192222e+03
1.685180000000000064e+03	6.720826519138584445e+03
1.683579999999999927e+03	6.805498841793637439e+03
1.681980000000000018e+03	7.075800882619135336e+03
1.680380000000000109e+03	7.267675878361103059e+03
1.678789999999999964e+03	7.078431384926825558e+03
1.677190000000000055e+03	7.164295033103157948e+03
1.675589999999999918e+03	7.167599758146458953e+03
1.673990000000000009e+03	7.063917238004253704e+03
1.672390000000000100e+03	7.250679436758122392e+03
1.670799999999999955e+03	7.268602195433012639e+03
1.669200000000000045e+03	7.305200020513913842e+03
1.667599999999999909e+03	7.433782512918980501e+03
1.666000000000000000e+03	7.359155742541184736e+03
1.664390000000000100e+03	7.574773873913458374e+03
1.662789999999999964e+03	7.124801847735271622e+03
1.661190000000000055e+03	7.202000174304526809e+03
1.659589999999999918e+03	7.510172374661809044e+03
1.657990000000000009e+03	7.502508537561853700e+03
1.656390000000000100e+03	7.709899553657184697e+03
1.654779999999999973e+03	7.931801591423703940e+03
1.653180000000000064e+03	8.079601316003224383e+03
1.651579999999999927e+03	8.070397499416482788e+03
1.649970000000000027e+03	7.906311399816712765e+03
1.648369999999999891e+03	7.909751994344871491e+03
1.646769999999999982e+03	7.587446691274889417e+03
1.645160000000000082e+03	7.646499997175608769e+03
1.643559999999999945e+03	7.213156654506643463e+03
1.641950000000000045e+03	7.446988193324555141e+03
1.640349999999999909e+03	6.915240379479150761e+03
1.638740000000000009e+03	7.109478590882892604e+03
1.637130000000000109e+03	6.598214414847092485e+03
1.635529999999999973e+03	7.083633733014882637e+03
1.633920000000000073e+03	7.104300007420821203e+03
1.632309999999999945e+03	7.403160048201705649e+03
1.630700000000000045e+03	7.226634995914793762e+03
1.629099999999999909e+03	7.290995336675275212e+03
1.627490000000000009e+03	7.375908142638567369e+03
1.625880000000000109e+03	7.676678002640916020e+03
1.624269999999999982e+03	7.711001453313986531e+03
1.622660000000000082e+03	7.721201507315114213e+03
1.621049999999999955e+03	7.897390430646504683e+03
1.619440000000000055e+03	7.951501953079425220e+03
1.617829999999999927e+03	7.916099900874781270e+03
1.616220000000000027e+03	7.857303852964460020e+03
1.614609999999999900e+03	8.013211259931798850e+03
1.613000000000000000e+03	8.281399513485421267e+03
1.611380000000000109e+03	8.250836489580146008e+03
1.609769999999999982e+03	8.545161235879388187e+03
1.608160000000000082e+03	8.496000941576150581e+03
1.606549999999999955e+03	8.711686555922578918e+03
1.604930000000000064e+03	8.844719461227621650e+03
1.603319999999999936e+03	8.949098580599291381e+03
1.601710000000000036e+03	8.667518170524434026e+03
1.600089999999999918e+03	8.654988693513669205e+03
1.598480000000000018e+03	8.502699574350976036e+03
1.596859999999999900e+03	8.112603826881944769e+03
1.595250000000000000e+03	7.837307250232033766e+03
1.593630000000000109e+03	7.730299896807257937e+03
1.592019999999999982e+03	7.538106122788450193e+03
1.590400000000000091e+03	7.415398658835038987e+03
1.588779999999999973e+03	7.223999942088601529e+03
1.587160000000000082e+03	6.928710837122610428e+03
1.585549999999999955e+03	6.923706592859605735e+03
1.583930000000000064e+03	7.018098167730896421e+03
1.582309999999999945e+03	6.836447579427708661e+03
1.580690000000000055e+03	7.040683114652384575e+03
1.579069999999999936e+03	6.809705119179174289e+03
1.577450000000000045e+03	6.696410110943741529e+03
1.575839999999999918e+03	6.792493746164311233e+03
1.574220000000000027e+03	6.774715087895472607e+03
1.572599999999999909e+03	6.998859917138685887e+03
1.570970000000000027e+03	6.889300025930699121e+03
1.569349999999999909e+03	7.011563222299973859e+03
1.567730000000000018e+03	6.770416114845440461e+03
1.566109999999999900e+03	6.781598795682696618e+03
1.564490000000000009e+03	6.865511990692974905e+03
1.562869999999999891e+03	6.774588514369481345e+03
1.561240000000000009e+03	6.340643097469993336e+03
1.559619999999999891e+03	6.654147299459302303e+03
1.558000000000000000e+03	6.543500015311475181e+03
1.556369999999999891e+03	6.670204771022930800e+03
1.554750000000000000e+03	6.767284959713406352e+03
1.553119999999999891e+03	6.398019270776841950e+03
1.551500000000000000e+03	6.505782940383206551e+03
1.549869999999999891e+03	6.635400026664951838e+03
1.548250000000000000e+03	6.647484957517629482e+03
1.546619999999999891e+03	6.522807801301992185e+03
1.545000000000000000e+03	6.734699833691925051e+03
1.543369999999999891e+03	6.850468103833471105e+03
1.541740000000000009e+03	6.621900602440830880e+03
1.540119999999999891e+03	6.917060620629841651e+03
1.538490000000000009e+03	6.886806574254218503e+03
1.536859999999999900e+03	6.925792682196355599e+03
1.535230000000000018e+03	7.090627579252929536e+03
1.533599999999999909e+03	7.406693292934148303e+03
1.531970000000000027e+03	6.963942182663293352e+03
1.530339999999999918e+03	6.851999447971432346e+03
1.528710000000000036e+03	6.977422262441597013e+03
1.527079999999999927e+03	7.304087109492371383e+03
1.525450000000000045e+03	7.156006270319057876e+03
1.523819999999999936e+03	7.094703081530499730e+03
1.522190000000000055e+03	7.381001245254770765e+03
1.520559999999999945e+03	7.690047223293698153e+03
1.518930000000000064e+03	7.444403466219608163e+03
1.517299999999999955e+03	7.813681500223201510e+03
1.515660000000000082e+03	8.009894890619087164e+03
1.514029999999999973e+03	7.898022760793449379e+03
1.512400000000000091e+03	8.092465096729561992e+03
1.510759999999999991e+03	8.058917526322664344e+03
1.509130000000000109e+03	8.512953822809064150e+03
1.507490000000000009e+03	8.444501922378063682e+03
1.505859999999999900e+03	8.359095865287916240e+03
1.504220000000000027e+03	8.186599986090169295e+03
1.502589999999999918e+03	7.886216478376200939e+03
1.500950000000000045e+03	7.771198381597258958e+03
1.499319999999999936e+03	7.564802951417603254e+03
1.497680000000000064e+03	7.417300884085731013e+03
1.496039999999999964e+03	7.426602069403719725e+03
1.494410000000000082e+03	7.470695564752940300e+03
1.492769999999999982e+03	7.324998910877956405e+03
1.491130000000000109e+03	7.119507453419765625e+03
1.489490000000000009e+03	7.090498222084553163e+03
1.487849999999999909e+03	7.063301077691849969e+03
1.486210000000000036e+03	7.039600541830031034e+03
1.484569999999999936e+03	6.997289528470400001e+03
1.482930000000000064e+03	6.904602554042947304e+03
1.481289999999999964e+03	7.017677579599890123e+03
1.479650000000000091e+03	6.895300645428966163e+03
1.478009999999999991e+03	6.888002984751890835e+03
1.476369999999999891e+03	6.986899967062454380e+03
1.474730000000000018e+03	6.897973977594215285e+03
1.473089999999999918e+03	6.751000000095748874e+03
1.471450000000000045e+03	7.204423321891707928e+03
1.469799999999999955e+03	6.816800339049721515e+03
1.468160000000000082e+03	6.718394307068300805e+03
1.466519999999999982e+03	6.739099972976916433e+03
1.464869999999999891e+03	6.736763461014524182e+03
1.463230000000000018e+03	7.092999681089825572e+03
1.461579999999999927e+03	6.533509080682339118e+03
1.459940000000000055e+03	6.983198424721342235e+03
1.458289999999999964e+03	6.892640355096028543e+03
1.456650000000000091e+03	6.827898227121569107e+03
1.455000000000000000e+03	6.609439848400002120e+03
1.453359999999999900e+03	6.774495027802580807e+03
1.451710000000000036e+03	6.721658449439424658e+03
1.450059999999999945e+03	7.206979765091192348e+03
1.448410000000000082e+03	6.996927403938510906e+03
1.446769999999999982e+03	7.002593347627994262e+03
1.445119999999999891e+03	7.049109193266298462e+03
1.443470000000000027e+03	7.141186101451491595e+03
1.441819999999999936e+03	6.974005181415869629e+03
1.440170000000000073e+03	7.005707267725593738e+03
1.438519999999999982e+03	7.034695665177769115e+03
1.436869999999999891e+03	6.701250432473323599e+03
1.435220000000000027e+03	6.888799874220305355e+03
1.433569999999999936e+03	6.724005844499494742e+03
1.431920000000000073e+03	6.496700572435855065e+03
1.430269999999999982e+03	6.523994456260060360e+03
1.428619999999999891e+03	6.551800309117041252e+03
1.426960000000000036e+03	6.489294257587669563e+03
1.425309999999999945e+03	6.397120351491518704e+03
1.423660000000000082e+03	6.461980864853979256e+03
1.422009999999999991e+03	6.216289187497895000e+03
1.420349999999999909e+03	6.837998586590406376e+03
1.418700000000000045e+03	6.445009279859656999e+03
1.417039999999999964e+03	6.787988287299379408e+03
1.415390000000000100e+03	6.534943173578423739e+03
1.413730000000000018e+03	6.763692889149755501e+03
1.412079999999999927e+03	7.035998563511991051e+03
1.410420000000000073e+03	6.963290519002083784e+03
1.408769999999999982e+03	6.660700613896611685e+03
1.407109999999999900e+03	6.707817358036569203e+03
1.405450000000000045e+03	7.018994323482404980e+03
1.403799999999999955e+03	6.837206390505320087e+03
1.402140000000000100e+03	6.718714951412738628e+03
1.400480000000000018e+03	6.856291149473824589e+03
1.398819999999999936e+03	6.610053956773132995e+03
1.397160000000000082e+03	6.791197146264113144e+03
1.395500000000000000e+03	6.625438729640233760e+03
1.393839999999999918e+03	6.818875005273254828e+03
1.392180000000000064e+03	6.693906895132518912e+03
1.390519999999999982e+03	6.760677876031067171e+03
1.388859999999999900e+03	6.572700057283930619e+03
1.387200000000000045e+03	6.415410700642570191e+03
1.385539999999999964e+03	6.626398547785414848e+03
1.383880000000000109e+03	6.830797784619945560e+03
1.382220000000000027e+03	6.748100491784976839e+03
1.380559999999999945e+03	6.679800452494212550e+03
1.378890000000000100e+03	6.883000122130605632e+03
1.377230000000000018e+03	6.969377662085018528e+03
1.375569999999999936e+03	6.807904932791002466e+03
1.373900000000000091e+03	7.226351610172645451e+03
1.372240000000000009e+03	7.268110024813909149e+03
1.370569999999999936e+03	7.522694293097832997e+03
1.368910000000000082e+03	7.595497281078910419e+03
1.367240000000000009e+03	7.649401585062881168e+03
1.365579999999999927e+03	7.962284778906607244e+03
1.363910000000000082e+03	7.979903751641602867e+03
1.362240000000000009e+03	7.902500007224569345e+03
1.360579999999999927e+03	7.832883703185441846e+03
1.358910000000000082e+03	7.584810665025649541e+03
1.357240000000000009e+03	7.541398804017472685e+03
1.355569999999999936e+03	7.378203140660197278e+03
1.353900000000000091e+03	7.071692982770303388e+03
1.352240000000000009e+03	6.794513602007657937e+03
1.350569999999999936e+03	6.980057074467168604e+03
1.348900000000000091e+03	6.636902641033534564e+03
1.347230000000000018e+03	6.387004057036990162e+03
1.345559999999999945e+03	6.537399796330713798e+03
1.343890000000000100e+03	6.675897925088110242e+03
1.342220000000000027e+03	6.512208531643254901e+03
1.340539999999999964e+03	6.500490537539752040e+03
1.338869999999999891e+03	6.553202700043180812e+03
1.337200000000000045e+03	6.677090637867734586e+03
1.335529999999999973e+03	6.504211062071684864e+03
1.333849999999999909e+03	6.516004058406046170e+03
1.332180000000000064e+03	6.653987143269474473e+03
1.330509999999999991e+03	6.360930408249259017e+03
1.328829999999999927e+03	6.522901183616966591e+03
1.327160000000000082e+03	6.807292233778161062e+03
1.325480000000000018e+03	6.687727357808041234e+03
1.323809999999999945e+03	6.866295023405001302e+03
1.322130000000000109e+03	7.064000476561992400e+03
1.320460000000000036e+03	7.144782697277740226e+03
1.318779999999999973e+03	6.959915235269267214e+03
1.317109999999999900e+03	6.968899583974322923e+03
1.315430000000000064e+03	6.904712598256601268e+03
1.313750000000000000e+03	6.960791014055943378e+03
1.312069999999999936e+03	6.797998721061980177e+03
1.310390000000000100e+03	6.562812449834682411e+03
1.308720000000000027e+03	6.638248616589841731e+03
1.307039999999999964e+03	6.226914913486149089e+03
1.305359999999999900e+03	6.291098601878685258e+03
1.303680000000000064e+03	6.269979321419007647e+03
1.302000000000000000e+03	6.023333524453071732e+03
1.300319999999999936e+03	6.280599099894402570e+03
1.298640000000000100e+03	6.145302205593409781e+03
1.296960000000000036e+03	5.999024094476258142e+03
1.295269999999999982e+03	6.127982540688539302e+03
1.293589999999999918e+03	5.855200235954546770e+03
1.291910000000000082e+03	5.838414397202980581e+03
1.290230000000000018e+03	6.207579114737054624e+03
1.288539999999999964e+03	6.161799262620023910e+03
1.286859999999999900e+03	5.971603361598936317e+03
1.285180000000000064e+03	6.094383353474870091e+03
1.283490000000000009e+03	6.134016763788782555e+03
1.281809999999999945e+03	6.139697101062198271e+03
1.280119999999999891e+03	5.840312696192576368e+03
1.278440000000000055e+03	6.071345590059749156e+03
1.276750000000000000e+03	5.909139536255058374e+03
1.275069999999999936e+03	6.142498863092148895e+03
1.273380000000000109e+03	5.978399502959675374e+03
1.271690000000000055e+03	5.715123996496374275e+03
1.270009999999999991e+03	5.819476730643192241e+03
1.268319999999999936e+03	5.757303008433806099e+03
1.266630000000000109e+03	5.954189886955025941e+03
1.264940000000000055e+03	6.000761349797715411e+03
1.263250000000000000e+03	6.658931202894773378e+03
1.261559999999999945e+03	6.349011052276236114e+03
1.259869999999999891e+03	6.220700101945227289e+03
1.258180000000000064e+03	6.424594953870808240e+03
1.256490000000000009e+03	6.545002027131909017e+03
1.254799999999999955e+03	6.552398531121845735e+03
1.253109999999999900e+03	6.452299951440911173e+03
1.251420000000000073e+03	6.401604071859868782e+03
1.249730000000000018e+03	6.578096377172221764e+03
1.248039999999999964e+03	6.592285469734389153e+03
1.246339999999999918e+03	6.358409016908610283e+03
1.244650000000000091e+03	6.477699653055077761e+03
1.242960000000000036e+03	6.513704459930881967e+03
1.241259999999999991e+03	6.455288095072326541e+03
1.239569999999999936e+03	6.267611083752532977e+03
1.237880000000000109e+03	6.306899859206222573e+03
1.236180000000000064e+03	6.305399036042953412e+03
1.234490000000000009e+03	6.131325376201538347e+03
1.232789999999999964e+03	6.235044573682131158e+03
1.231089999999999918e+03	5.948664619565508474e+03
1.229400000000000091e+03	6.210880318968547726e+03
1.227700000000000045e+03	5.751200925564035060e+03
1.226000000000000000e+03	6.130974513615085016e+03
1.224309999999999945e+03	5.840723329092398671e+03
1.222609999999999900e+03	5.575702961231318113e+03
1.220910000000000082e+03	5.557095440649366537e+03
1.219210000000000036e+03	5.600301138431627805e+03
1.217509999999999991e+03	5.694694992015532989e+03
1.215809999999999945e+03	5.286621361523347332e+03
1.214109999999999900e+03	5.341498810851243434e+03
1.212410000000000082e+03	5.398566383529988343e+03
1.210710000000000036e+03	5.106626184131176160e+03
1.209009999999999991e+03	5.446398428809095094e+03
1.207309999999999945e+03	5.283004991082979359e+03
1.205609999999999900e+03	5.443202958351083907e+03
1.203900000000000091e+03	5.766376648481470511e+03
1.202200000000000045e+03	5.756631511013512863e+03
1.200500000000000000e+03	5.853075828612264559e+03
1.198799999999999955e+03	5.572203691209331737e+03
1.197089999999999918e+03	5.860599875348484602e+03
1.195390000000000100e+03	6.091297260776075746e+03
1.193680000000000064e+03	6.050605564515505648e+03
1.191980000000000018e+03	6.070300688844114120e+03
1.190269999999999982e+03	6.119391891050029699e+03
1.188569999999999936e+03	6.136308845121812737e+03
1.186859999999999900e+03	6.305395170654997855e+03
1.185160000000000082e+03	6.308600703972643714e+03
1.183450000000000045e+03	6.577690601404116933e+03
1.181740000000000009e+03	6.400817833112279914e+03
1.180029999999999973e+03	6.376577437709042897e+03
1.178329999999999927e+03	6.241429834800364915e+03
1.176619999999999891e+03	6.351878783030855629e+03
1.174910000000000082e+03	6.055703469996342392e+03
1.173200000000000045e+03	5.712100581072633759e+03
1.171490000000000009e+03	5.591799999220645986e+03
1.169779999999999973e+03	5.659000691348835062e+03
1.168069999999999936e+03	5.805496782390659973e+03
1.166359999999999900e+03	5.721220420889773777e+03
1.164650000000000091e+03	5.443410900688255424e+03
1.162940000000000055e+03	5.224570217431927631e+03
1.161220000000000027e+03	5.406467800038264613e+03
1.159509999999999991e+03	5.158510728783763625e+03
1.157799999999999955e+03	5.054300232420967404e+03
1.156089999999999918e+03	5.182739896881849745e+03
1.154369999999999891e+03	5.374480001295688453e+03
1.152660000000000082e+03	5.508057810316790892e+03
1.150940000000000055e+03	5.413166180189077750e+03
1.149230000000000018e+03	5.483286254642512176e+03
1.147509999999999991e+03	5.336312978582614051e+03
1.145799999999999955e+03	5.338790502214805201e+03
1.144079999999999927e+03	5.321606536116835741e+03
1.142369999999999891e+03	5.347693877432145200e+03
1.140650000000000091e+03	5.337306882412480263e+03
1.138930000000000064e+03	5.386192278305971740e+03
1.137220000000000027e+03	5.349104853178550002e+03
1.135500000000000000e+03	5.426696841871869765e+03
1.133779999999999973e+03	5.347801104394735376e+03
1.132059999999999945e+03	5.468399963844590275e+03
1.130339999999999918e+03	5.473000421253533204e+03
1.128619999999999891e+03	5.570997697248873919e+03
1.126900000000000091e+03	5.427203440652709105e+03
1.125180000000000064e+03	5.497600480463112035e+03
1.123460000000000036e+03	5.675900500473710053e+03
1.121740000000000009e+03	5.552675234390187143e+03
1.120019999999999982e+03	5.163492021138042219e+03
1.118299999999999955e+03	5.678841777598174303e+03
1.116579999999999927e+03	5.724879417407264555e+03
1.114849999999999909e+03	5.444112753447465366e+03
1.113130000000000109e+03	5.436199367020786667e+03
1.111410000000000082e+03	5.539374206563092230e+03
1.109680000000000064e+03	5.530303724787198917e+03
1.107960000000000036e+03	5.505173250449948682e+03
1.106240000000000009e+03	5.533797471162320107e+03
1.104509999999999991e+03	5.738950018579263087e+03
1.102789999999999964e+03	5.525463981738045732e+03
1.101059999999999945e+03	5.765607303942327235e+03
1.099329999999999927e+03	5.794975603118030449e+03
1.097609999999999900e+03	5.728753724097228769e+03
1.095880000000000109e+03	5.970023216139733449e+03
1.094150000000000091e+03	5.716586540331350989e+03
1.092430000000000064e+03	5.723369012683690016e+03
1.090700000000000045e+03	6.002138139824690370e+03
1.088970000000000027e+03	5.603849113193386984e+03
1.087240000000000009e+03	5.997931318360939258e+03
1.085509999999999991e+03	5.562580919572471430e+03
1.083779999999999973e+03	5.586947430284119946e+03
1.082049999999999955e+03	5.528150322400992081e+03
1.080319999999999936e+03	5.634687635173800118e+03
1.078589999999999918e+03	5.484333551917261502e+03
1.076859999999999900e+03	5.677689333107078710e+03
1.075130000000000109e+03	5.611504133219474170e+03
1.073390000000000100e+03	5.611884333288388916e+03
1.071660000000000082e+03	5.691749739699564088e+03
1.069930000000000064e+03	5.529688173499809636e+03
1.068200000000000045e+03	5.511956484157290106e+03
1.066460000000000036e+03	5.568984997760929218e+03
1.064730000000000018e+03	5.672915495643163013e+03
1.062990000000000009e+03	5.583976190127182235e+03
1.061259999999999991e+03	5.370584298235177812e+03
1.059519999999999982e+03	5.364972109383927091e+03
1.057789999999999964e+03	5.495152927852829635e+03
1.056049999999999955e+03	5.289102743352844300e+03
1.054319999999999936e+03	5.406174917984647436e+03
1.052579999999999927e+03	5.580636280746043667e+03
1.050839999999999918e+03	5.569262172547229966e+03
1.049099999999999909e+03	5.420573804625048069e+03
1.047369999999999891e+03	5.232653208049827299e+03
1.045630000000000109e+03	5.347090306480625259e+03
1.043890000000000100e+03	5.254943746118557101e+03
1.042150000000000091e+03	5.343719868773686358e+03
1.040410000000000082e+03	5.343119898120944526e+03
1.038670000000000073e+03	5.129540762715847450e+03
1.036930000000000064e+03	5.294975691876745259e+03
1.035190000000000055e+03	5.109025610257630433e+03
1.033450000000000045e+03	5.177981340378601999e+03
1.031710000000000036e+03	5.363907341539599656e+03
1.029960000000000036e+03	5.340263282687222272e+03
1.028220000000000027e+03	5.557721539877633404e+03
1.026480000000000018e+03	5.491920411447260449e+03
1.024740000000000009e+03	5.378234113332432571e+03
1.022990000000000009e+03	5.479249574184495032e+03
1.021250000000000000e+03	5.348201287905440950e+03
1.019500000000000000e+03	5.257241964794384330e+03
1.017759999999999991e+03	5.324779235062914267e+03
1.016009999999999991e+03	5.146202319141522821e+03
1.014269999999999982e+03	5.350413273445582490e+03
1.012519999999999982e+03	5.313117165076026140e+03
1.010779999999999973e+03	5.487600222599473454e+03
1.009029999999999973e+03	5.334611603846060461e+03
1.007279999999999973e+03	5.335967167665917259e+03
1.005529999999999973e+03	5.524972592256513963e+03
1.003789999999999964e+03	5.435873698261726531e+03
1.002039999999999964e+03	5.274767810466515584e+03
1.000289999999999964e+03	5.537499693296858823e+03
9.985380000000000109e+02	5.274101679438118481e+03
9.967889999999999873e+02	5.146025984400786911e+03
9.950389999999999873e+02	5.358705249662467395e+03
9.932880000000000109e+02	5.352095104571752017e+03
9.915370000000000346e+02	5.294276114915150174e+03
9.897859999999999445e+02	5.088109491676847938e+03
9.880339999999999918e+02	5.292725560291704824e+03
9.862820000000000391e+02	4.887120350475294799e+03
9.845289999999999964e+02	5.007816238938855349e+03
9.827759999999999536e+02	5.044847579709968159e+03
9.810230000000000246e+02	5.054564633356339982e+03
9.792690000000000055e+02	4.885738682938766033e+03
9.775149999999999864e+02	4.959809889023409596e+03
9.757599999999999909e+02	4.985802921566621990e+03
9.740049999999999955e+02	5.074019912217520869e+03
9.722500000000000000e+02	5.080300754715920448e+03
9.704940000000000282e+02	5.074515612933235388e+03
9.687380000000000564e+02	5.036130785147961433e+03
9.669809999999999945e+02	5.150992246977737523e+03
9.652240000000000464e+02	5.129040089829358294e+03
9.634669999999999845e+02	5.024600139395509359e+03
9.617089999999999463e+02	4.992740280360779252e+03
9.599510000000000218e+02	5.025996439798099345e+03
9.581920000000000073e+02	4.907697627465536243e+03
9.564329999999999927e+02	4.848537381617243227e+03
9.546730000000000018e+02	5.044587255473649748e+03
9.529130000000000109e+02	4.947420943950201945e+03
9.511530000000000200e+02	5.009579331180546433e+03
9.493920000000000528e+02	5.034256800629865211e+03
9.476309999999999718e+02	4.933144661810291836e+03
9.458700000000000045e+02	4.929439858696742704e+03
9.441079999999999472e+02	5.024781091851446035e+03
9.423450000000000273e+02	5.084079535740754181e+03
9.405829999999999700e+02	5.011139644330558440e+03
9.388189999999999600e+02	5.284925469987995712e+03
9.370560000000000400e+02	4.990411148518194750e+03
9.352920000000000300e+02	5.270604333783605398e+03
9.335270000000000437e+02	5.202880705844364456e+03
9.317630000000000337e+02	5.429072790365484252e+03
9.299969999999999573e+02	5.032784086921727067e+03
9.282319999999999709e+02	5.162684759790943644e+03
9.264660000000000082e+02	5.241620301097537777e+03
9.246989999999999554e+02	5.152019560560712307e+03
9.229320000000000164e+02	5.076172762012541170e+03
9.211649999999999636e+02	5.234455675175195211e+03
9.193970000000000482e+02	5.119073582573480053e+03
9.176290000000000191e+02	5.116459610341035841e+03
9.158609999999999900e+02	4.831084678948419423e+03
9.140919999999999845e+02	4.770323134501955792e+03
9.123220000000000027e+02	4.880592011080138036e+03
9.105520000000000209e+02	4.829100345563498195e+03
9.087820000000000391e+02	4.833081749544498052e+03
9.070119999999999436e+02	4.940660210361597819e+03
9.052409999999999854e+02	4.853476093766339545e+03
9.034690000000000509e+02	5.016545736839668280e+03
9.016970000000000027e+02	4.610705596962109666e+03
8.999249999999999545e+02	4.895167880253856310e+03
8.981520000000000437e+02	4.894041256966689616e+03
8.963790000000000191e+02	4.987577740213699144e+03
8.946059999999999945e+02	4.871658684016665575e+03
8.928319999999999936e+02	4.647384658714207035e+03
8.910579999999999927e+02	4.900634885425373795e+03
8.892830000000000155e+02	4.910503892857007486e+03
8.875080000000000382e+02	4.936714491259308488e+03
8.857319999999999709e+02	4.654261878999666806e+03
8.839560000000000173e+02	4.728336193006076428e+03
8.821799999999999500e+02	4.790019507436101776e+03
8.804030000000000200e+02	4.662831757892918176e+03
8.786259999999999764e+02	4.805711689806124923e+03
8.768479999999999563e+02	4.685890022764440801e+03
8.750700000000000500e+02	4.845359712390018103e+03
8.732910000000000537e+02	4.901027677080383000e+03
8.715119999999999436e+02	4.756565487894756188e+03
8.697329999999999472e+02	4.925417442911537364e+03
8.679529999999999745e+02	4.774815073113270046e+03
8.661730000000000018e+02	5.000935753213608223e+03
8.643920000000000528e+02	4.989904650666330781e+03
8.626109999999999900e+02	4.948838497564841418e+03
8.608300000000000409e+02	4.825594600143792377e+03
8.590480000000000018e+02	4.868766719975129490e+03
8.572659999999999627e+02	4.802860062129417202e+03
8.554829999999999472e+02	5.010423212449938546e+03
8.537000000000000455e+02	4.894003971504876972e+03
8.519170000000000300e+02	4.850000523897118910e+03
8.501330000000000382e+02	5.105792978379950000e+03
8.483479999999999563e+02	5.093193411413336435e+03
8.465639999999999645e+02	4.955482794609664779e+03
8.447780000000000200e+02	5.116807439155991233e+03
8.429930000000000518e+02	4.995202686950697171e+03
8.412069999999999936e+02	5.044976884843816151e+03
8.394199999999999591e+02	4.925663887237253221e+03
8.376330000000000382e+02	4.965943297226413961e+03
8.358460000000000036e+02	5.104878947023922592e+03
8.340579999999999927e+02	4.999636322177281727e+03
8.322699999999999818e+02	4.808341919281686387e+03
8.304819999999999709e+02	4.992577543809048620e+03
8.286929999999999836e+02	4.959501587831494362e+03
8.269030000000000200e+02	4.949389435148638768e+03
8.251130000000000564e+02	5.134319479457976740e+03
8.233229999999999791e+02	5.143202374647260513e+03
8.215330000000000155e+02	5.150041744522981389e+03
8.197409999999999854e+02	5.243439999765884750e+03
8.179500000000000455e+02	5.348281414756990671e+03
8.161580000000000155e+02	5.481561078917457053e+03
8.143659999999999854e+02	5.554959497329167789e+03
8.125729999999999791e+02	5.436836309776138478e+03
8.107799999999999727e+02	5.441987479637276010e+03
8.089859999999999900e+02	5.851832480026479971e+03
8.071920000000000073e+02	5.790236012758065044e+03
8.053980000000000246e+02	5.461760691318623685e+03
8.036029999999999518e+02	5.424231618789851382e+03
8.018070000000000164e+02	5.376767479116426330e+03
8.000119999999999436e+02	5.315898153729167461e+03
7.982150000000000318e+02	5.026866893087580138e+03
7.964189999999999827e+02	5.089075722783924903e+03
7.946219999999999573e+02	4.954865889664947645e+03
7.928239999999999554e+02	4.866096756371809533e+03
7.910270000000000437e+02	4.758679891453092750e+03
7.892279999999999518e+02	4.742299871536963110e+03
7.874299999999999500e+02	4.981572423958245054e+03
7.856299999999999955e+02	4.823474174423313343e+03
7.838310000000000173e+02	4.808097167729702051e+03
7.820309999999999491e+02	4.652561792427825822e+03
7.802300000000000182e+02	4.898531749694147038e+03
7.784299999999999500e+02	4.741147898391704075e+03
7.766280000000000427e+02	5.140570937821735242e+03
7.748269999999999982e+02	4.978706712039043850e+03
7.730249999999999773e+02	4.915345865065099133e+03
7.712219999999999800e+02	5.109364574991577683e+03
7.694189999999999827e+02	4.583000067257970841e+03
7.676159999999999854e+02	4.815887967445987670e+03
7.658120000000000118e+02	4.746581062411354651e+03
7.640080000000000382e+02	4.562026096462574969e+03
7.622029999999999745e+02	4.567535137566623234e+03
7.603980000000000246e+02	4.452398917865165458e+03
7.585919999999999845e+02	4.342496171547365520e+03
7.567859999999999445e+02	4.490139552625237229e+03
7.549800000000000182e+02	4.362614595656235906e+03
7.531730000000000018e+02	4.321419303354066869e+03
7.513659999999999854e+02	4.301359637378378466e+03
7.495579999999999927e+02	4.501592630689159705e+03
7.477500000000000000e+02	4.269929938580613452e+03
7.459410000000000309e+02	4.185699847850686638e+03
7.441319999999999482e+02	4.259079547810521035e+03
7.423229999999999791e+02	4.277356798475848336e+03
7.405130000000000337e+02	4.181060690157053614e+03
7.387029999999999745e+02	4.168180482227624452e+03
7.368920000000000528e+02	4.273280141286547405e+03
7.350810000000000173e+02	4.402835185466816256e+03
7.332699999999999818e+02	4.405920021242060102e+03
7.314579999999999700e+02	4.388258257248626251e+03
7.296449999999999818e+02	4.353280006091942596e+03
7.278319999999999936e+02	4.337096462229294957e+03
7.260190000000000055e+02	4.329460197831086589e+03
7.242050000000000409e+02	4.414493578012999933e+03
7.223909999999999627e+02	4.368720191076790798e+03
7.205769999999999982e+02	4.254193582836793212e+03
7.187619999999999436e+02	4.134680968406581087e+03
7.169460000000000264e+02	4.289935224688039852e+03
7.151299999999999955e+02	4.392139806155619226e+03
7.133139999999999645e+02	4.310434954194171041e+03
7.114969999999999573e+02	4.269761438072675446e+03
7.096799999999999500e+02	4.530955753066415127e+03
7.078630000000000564e+02	4.353520229087026564e+03
7.060449999999999591e+02	4.306345716672959497e+03
7.042259999999999991e+02	4.578599477801025387e+03
7.024070000000000391e+02	4.241406110157591684e+03
7.005879999999999654e+02	4.419819978671787794e+03
6.987680000000000291e+02	4.341234580481986086e+03
6.969479999999999791e+02	4.330839752220275841e+03
6.951269999999999527e+02	4.328964737556488217e+03
6.933060000000000400e+02	4.387039770469856194e+03
6.914850000000000136e+02	4.339514931749497009e+03
6.896630000000000109e+02	4.149142865190905468e+03
6.878410000000000082e+02	4.088054324457497842e+03
6.860180000000000291e+02	4.072889327855853935e+03
6.841950000000000500e+02	4.205191697561977890e+03
6.823709999999999809e+02	3.950848495313959575e+03
6.805470000000000255e+02	3.840780634267040114e+03
6.787219999999999800e+02	3.952167972868483957e+03
6.768970000000000482e+02	4.035380000272551570e+03
6.750720000000000027e+02	4.221444677221106758e+03
6.732459999999999809e+02	3.862604827283887516e+03
6.714199999999999591e+02	3.896444672140686635e+03
6.695929999999999609e+02	3.861325466990130735e+03
6.677659999999999627e+02	3.940297942338886514e+03
6.659379999999999882e+02	3.983123234507990219e+03
6.641100000000000136e+02	3.962979552235611663e+03
6.622820000000000391e+02	3.875939141000463223e+03
6.604529999999999745e+02	4.087898796787227184e+03
6.586230000000000473e+02	4.013456123363058396e+03
6.567939999999999827e+02	3.755067516454739689e+03
6.549629999999999654e+02	3.759896967631017105e+03
6.531330000000000382e+02	3.734409288279664452e+03
6.513020000000000209e+02	3.730499995339535872e+03
6.494700000000000273e+02	3.594504056991067046e+03
6.476380000000000337e+02	3.774330724517192721e+03
6.458060000000000400e+02	3.600985862329288466e+03
6.439729999999999563e+02	3.558618772619862739e+03
6.421399999999999864e+02	3.634700004233967320e+03
6.403060000000000400e+02	3.645851804445756443e+03
6.384719999999999800e+02	3.501062927545085586e+03
6.366369999999999436e+02	3.580603383674983888e+03
6.348020000000000209e+02	3.675628975597273893e+03
6.329669999999999845e+02	3.363380444005115805e+03
6.311309999999999718e+02	3.592136072943621002e+03
6.292939999999999827e+02	3.406494777734711988e+03
6.274569999999999936e+02	3.768731536546807092e+03
6.256200000000000045e+02	3.383922628474432258e+03
6.237820000000000391e+02	3.513316804346523895e+03
6.219439999999999600e+02	3.680598634816650247e+03
6.201059999999999945e+02	3.796707857689926186e+03
6.182670000000000528e+02	4.100539885653033707e+03
6.164270000000000209e+02	4.431134427527113075e+03
6.145869999999999891e+02	4.853220507506570357e+03
6.127469999999999573e+02	4.734100692932805941e+03
6.109059999999999491e+02	4.700910865583504346e+03
6.090650000000000546e+02	4.449958498078600314e+03
6.072229999999999563e+02	4.055740896326487928e+03
6.053809999999999718e+02	3.867779290464827682e+03
6.035380000000000109e+02	3.803079234718364205e+03
6.016950000000000500e+02	3.743340311811895845e+03
5.998519999999999754e+02	3.703117684794360684e+03
5.980080000000000382e+02	3.669980863820592276e+03
5.961639999999999873e+02	3.726199815374067384e+03
5.943189999999999600e+02	3.809078335227208754e+03
5.924740000000000464e+02	3.888401649985061340e+03
5.906280000000000427e+02	3.974718210760437159e+03
5.887820000000000391e+02	3.870841592516953824e+03
5.869349999999999454e+02	3.832763192230527238e+03
5.850879999999999654e+02	3.997279208237477633e+03
5.832409999999999854e+02	3.994410790601240933e+03
5.813930000000000291e+02	3.904474899004727831e+03
5.795449999999999591e+02	4.124458491358171159e+03
5.776960000000000264e+02	3.875005237719977686e+03
5.758469999999999800e+02	3.939387385940854983e+03
5.739969999999999573e+02	3.863600018193041706e+03
5.721470000000000482e+02	3.839447514949619745e+03
5.702960000000000491e+02	3.933618159222458871e+03
5.684450000000000500e+02	3.695464406150718787e+03
5.665940000000000509e+02	3.705413616464465576e+03
5.647419999999999618e+02	3.516838400990811351e+03
5.628890000000000100e+02	3.493890310904771468e+03
5.610359999999999445e+02	3.338920200666072560e+03
5.591829999999999927e+02	3.406891215549084336e+03
5.573289999999999509e+02	3.344562903094933972e+03
5.554750000000000227e+02	3.328680921269974533e+03
5.536209999999999809e+02	3.427357950578654709e+03
5.517659999999999627e+02	3.410147970599339715e+03
5.499099999999999682e+02	3.415171647159854729e+03
5.480539999999999736e+02	3.331700331435918997e+03
5.461979999999999791e+02	3.446690188760002457e+03
5.443410000000000082e+02	3.291832131894915165e+03
5.424829999999999472e+02	3.386304537944956337e+03
5.406259999999999764e+02	3.565019971929685198e+03
5.387670000000000528e+02	3.266031127778193422e+03
5.369089999999999918e+02	3.245834751867625073e+03
5.350499999999999545e+02	3.337620225278654743e+03
5.331900000000000546e+02	3.392719995582826868e+03
5.313300000000000409e+02	3.384382124232101432e+03
5.294700000000000273e+02	3.434318055894997087e+03
5.276090000000000373e+02	3.467359342523416672e+03
5.257469999999999573e+02	3.504880037529746005e+03
5.238849999999999909e+02	3.624619817123355915e+03
5.220230000000000246e+02	3.663276747824403628e+03
5.201599999999999682e+02	3.488693813388107174e+03
5.182970000000000255e+02	3.385283816385837326e+03
5.164339999999999691e+02	3.761714976042005219e+03
5.145700000000000500e+02	3.608971323299171218e+03
5.127050000000000409e+02	3.538083447838271240e+03
5.108399999999999750e+02	3.609656377910315769e+03
5.089750000000000227e+02	3.486279996542423760e+03
5.071089999999999804e+02	3.379024592726401806e+03
5.052420000000000186e+02	3.529010386885456228e+03
5.033750000000000000e+02	3.465557386914542803e+03
5.015079999999999814e+02	3.342624809632586221e+03
4.996399999999999864e+02	3.478259991778340463e+03
4.977719999999999914e+02	3.453601376274099039e+03
4.959039999999999964e+02	3.494806729476531018e+03
4.940350000000000250e+02	3.665630430432412595e+03
4.921650000000000205e+02	3.600881668006377822e+03
4.902950000000000159e+02	3.521080018868999559e+03
4.884250000000000114e+02	3.522100038924658293e+03
4.865539999999999736e+02	3.500937236587044936e+03
4.846820000000000164e+02	3.380098582376439936e+03
4.828100000000000023e+02	3.379291374040749361e+03
4.809379999999999882e+02	3.591054791185964405e+03
4.790649999999999977e+02	3.407020282653921186e+03
4.771920000000000073e+02	3.455852581356657538e+03
4.753190000000000168e+02	3.517164946118332409e+03
4.734440000000000168e+02	3.865283877109986861e+03
4.715699999999999932e+02	3.599758398946415582e+03
4.696949999999999932e+02	3.578297108932079027e+03
4.678190000000000168e+02	3.583860000264294285e+03
4.659429999999999836e+02	3.664017589424427570e+03
4.640670000000000073e+02	3.607186463692413326e+03
4.621899999999999977e+02	3.609710612890347420e+03
4.603129999999999882e+02	3.526087473027858778e+03
4.584350000000000023e+02	3.619699750524178853e+03
4.565570000000000164e+02	3.714378661058084163e+03
4.546779999999999973e+02	3.669060035443368179e+03
4.527989999999999782e+02	3.696294121815621111e+03
4.509189999999999827e+02	3.479982069000950105e+03
4.490389999999999873e+02	3.689443031712874017e+03
4.471589999999999918e+02	3.479858411976372736e+03
4.452780000000000200e+02	3.681236783948213997e+03
4.433960000000000150e+02	3.434542108683690458e+03
4.415140000000000100e+02	3.317383122391986944e+03
4.396320000000000050e+02	3.654659957415858571e+03
4.377490000000000236e+02	3.507724887683669294e+03
4.358659999999999854e+02	3.641990923828855102e+03
4.339820000000000277e+02	3.524021754412109658e+03
4.320980000000000132e+02	3.462655850098308747e+03
4.302130000000000223e+02	3.639033476263460216e+03
4.283279999999999745e+02	3.436818127270403238e+03
4.264420000000000073e+02	3.617119447535754716e+03
4.245559999999999832e+02	3.764133458235836770e+03
4.226689999999999827e+02	3.555662646570089692e+03
4.207819999999999823e+02	3.789019960887564139e+03
4.188949999999999818e+02	3.609323075621900898e+03
4.170070000000000050e+02	3.734234796482776801e+03
4.151190000000000282e+02	3.689382130201708605e+03
4.132300000000000182e+02	3.646603462730475712e+03
4.113399999999999750e+02	3.716373438111565520e+03
4.094510000000000218e+02	3.727147564576766854e+03
4.075600000000000023e+02	3.829854646195585246e+03
4.056700000000000159e+02	3.821478959714243956e+03
4.037780000000000200e+02	3.809186529678953320e+03
4.018870000000000005e+02	3.926974487839704580e+03
3.999950000000000045e+02	3.823441283415416365e+03
3.981019999999999754e+02	3.708640201193383746e+03
3.962090000000000032e+02	3.691339968565596791e+03
3.943149999999999977e+02	3.738540028692303167e+03
3.924209999999999923e+02	3.793799991321266589e+03
3.905269999999999868e+02	3.781060397820383059e+03
3.886320000000000050e+02	3.834438304410451110e+03
3.867370000000000232e+02	3.737223912802599898e+03
3.848410000000000082e+02	3.885555002455445901e+03
3.829440000000000168e+02	3.845543733594918194e+03
3.810480000000000018e+02	3.890440323293128586e+03
3.791499999999999773e+02	3.868971819864409554e+03
3.772529999999999859e+02	3.672533670533231998e+03
3.753539999999999850e+02	3.875470980845086160e+03
3.734560000000000173e+02	3.975623782404156373e+03
3.715570000000000164e+02	3.957034593941390085e+03
3.696569999999999823e+02	3.798085913368578986e+03
3.677570000000000050e+02	3.761355877862722537e+03
3.658559999999999945e+02	3.784426003164990561e+03
3.639549999999999841e+02	3.905772142095342133e+03
3.620539999999999736e+02	3.895848128933556382e+03
3.601519999999999868e+02	3.904349483844576298e+03
3.582490000000000236e+02	3.776229971403221043e+03
3.563460000000000036e+02	3.873317282085109127e+03
3.544429999999999836e+02	3.975499834266293874e+03
3.525389999999999873e+02	3.887371541771974989e+03
3.506349999999999909e+02	3.678472575718415555e+03
3.487300000000000182e+02	3.895679860090774127e+03
3.468249999999999886e+02	4.121726398792472537e+03
3.449189999999999827e+02	4.001615697308381641e+03
3.430129999999999768e+02	4.122050505519668150e+03
3.411059999999999945e+02	4.009238509728595091e+03
3.391990000000000123e+02	3.912910640261222852e+03
3.372909999999999968e+02	4.153828807424146362e+03
3.353829999999999814e+02	4.028087293090456114e+03
3.334750000000000227e+02	4.051635188776954692e+03
3.315649999999999977e+02	3.922582860268682452e+03
3.296560000000000059e+02	4.053898717695959476e+03
3.277459999999999809e+02	3.972800189518719435e+03
3.258349999999999795e+02	4.073619845928643826e+03
3.239239999999999782e+02	3.911901183584763658e+03
3.220129999999999768e+02	4.005637895239292448e+03
3.201009999999999991e+02	4.084103394419766119e+03
3.181890000000000214e+02	4.303016726492814087e+03
3.162760000000000105e+02	4.347379259999849637e+03
3.143629999999999995e+02	4.252242317036532768e+03
3.124490000000000123e+02	4.221160587669662164e+03
3.105339999999999918e+02	4.239436303836430852e+03
3.086200000000000045e+02	4.260786496953915957e+03
3.067040000000000077e+02	4.391855424760114147e+03
3.047889999999999873e+02	4.369858403565295703e+03
3.028720000000000141e+02	4.309044178967320477e+03
3.009560000000000173e+02	4.413077097858103116e+03
2.990389999999999873e+02	4.395300322807393968e+03
2.971209999999999809e+02	4.729238020226289336e+03
2.952029999999999745e+02	4.464228455715206110e+03
2.932839999999999918e+02	4.682271859715047867e+03
2.913650000000000091e+02	4.798881652521442447e+03
2.894460000000000264e+02	4.735436113019008189e+03
2.875260000000000105e+02	4.640767773183779354e+03
2.856050000000000182e+02	4.789617896113271854e+03
2.836840000000000259e+02	4.933136335742163283e+03
2.817629999999999768e+02	5.028962792763067227e+03
2.798410000000000082e+02	5.384359952381432777e+03
2.779180000000000064e+02	5.517961101781628713e+03
2.759950000000000045e+02	5.788801087914383970e+03
2.740720000000000027e+02	6.104531790974603609e+03
2.721480000000000246e+02	6.204346612282293790e+03
2.702239999999999895e+02	6.497426693398618227e+03
2.682989999999999782e+02	6.896064747702341265e+03
2.663729999999999905e+02	7.089307457588788566e+03
2.644479999999999791e+02	7.942399991092552227e+03
2.625210000000000150e+02	8.341601190570361723e+03
2.605939999999999941e+02	8.741506600981550946e+03
2.586669999999999732e+02	9.508287054497322970e+03
2.567389999999999759e+02	1.029161449994025679e+04
2.548110000000000070e+02	1.134918932301612585e+04
2.528820000000000050e+02	1.230510269889550182e+04
2.509530000000000030e+02	1.357319987700017191e+04
2.490240000000000009e+02	1.481350254851729187e+04
2.470929999999999893e+02	1.608449097657847960e+04
2.451630000000000109e+02	1.725912064165838092e+04
2.432319999999999993e+02	1.855217759589235720e+04
2.413000000000000114e+02	1.929310525321766909e+04
2.393679999999999950e+02	2.045390003972978593e+04
2.374350000000000023e+02	2.163658829061118013e+04
2.355020000000000095e+02	2.202643385705590845e+04
2.335689999999999884e+02	2.246164703761899727e+04
2.316339999999999861e+02	2.228564283329839600e+04
2.296999999999999886e+02	2.301539520030851781e+04
2.277649999999999864e+02	2.236560532694248104e+04
2.258290000000000077e+02	2.193020267404554397e+04
2.238930000000000007e+02	2.174578084862798278e+04
2.219569999999999936e+02	2.117561377294868726e+04
2.200200000000000102e+02	2.071199732873745597e+04
2.180819999999999936e+02	2.004220410998306761e+04
2.161440000000000055e+02	1.977807416493393248e+04
2.142059999999999889e+02	1.911813696505583721e+04
2.122669999999999959e+02	1.885447761154666659e+04
2.103280000000000030e+02	1.817310145675886451e+04
2.083880000000000052e+02	1.787928943484014599e+04
2.064470000000000027e+02	1.704072741849191516e+04
2.045060000000000002e+02	1.653017655064530481e+04
2.025649999999999977e+02	1.596401002186780170e+04
2.006229999999999905e+02	1.578199745050023557e+04
1.986810000000000116e+02	1.499303806675248416e+04
1.967379999999999995e+02	1.496544454501269684e+04
1.947940000000000111e+02	1.444962688131723917e+04
1.928499999999999943e+02	1.457479990067226208e+04
1.909060000000000059e+02	1.391241430958433557e+04
1.889610000000000127e+02	1.382851129436393057e+04
1.870159999999999911e+02	1.432809999999612046e+04
1.850699999999999932e+02	1.386820000000000437e+04
