1.933269999999999982e+03	2.957399999999997817e+03
1.931720000000000027e+03	2.744199999985544764e+03
1.930180000000000064e+03	2.531705393391889174e+03
1.928630000000000109e+03	2.759294136895368865e+03
1.927079999999999927e+03	2.850700135823988148e+03
1.925539999999999964e+03	2.795500647686923458e+03
1.923990000000000009e+03	2.776702905782527978e+03
1.922440000000000055e+03	2.893609124067083030e+03
1.920900000000000091e+03	2.958762059817570844e+03
1.919349999999999909e+03	2.707655673964349717e+03
1.917799999999999955e+03	2.821638710066183194e+03
1.916250000000000000e+03	2.641860194908634639e+03
1.914710000000000036e+03	2.933765212514419090e+03
1.913160000000000082e+03	2.870406401928897139e+03
1.911609999999999900e+03	2.837712348371573171e+03
1.910059999999999945e+03	3.044084513311820956e+03
1.908509999999999991e+03	2.980912590432190427e+03
1.906960000000000036e+03	3.053490901850019327e+03
1.905410000000000082e+03	2.768703395163576261e+03
1.903859999999999900e+03	2.809300120452892770e+03
1.902309999999999945e+03	3.044399873550297798e+03
1.900750000000000000e+03	3.069399975765583349e+03
1.899200000000000045e+03	3.069400035192881205e+03
1.897650000000000091e+03	3.145799589865748658e+03
1.896099999999999909e+03	2.814101960427068661e+03
1.894549999999999955e+03	2.862998719527223329e+03
1.892990000000000009e+03	2.955099610367939931e+03
1.891440000000000055e+03	2.852598634203373422e+03
1.889890000000000100e+03	2.763108992050803408e+03
1.888329999999999927e+03	2.943788924328277062e+03
1.886779999999999973e+03	2.783318931486876863e+03
1.885220000000000027e+03	3.090789469692605508e+03
1.883670000000000073e+03	2.964498076613196190e+03
1.882109999999999900e+03	2.825016224693692493e+03
1.880559999999999945e+03	3.202770730164122142e+03
1.879000000000000000e+03	2.981618735968061628e+03
1.877450000000000045e+03	3.075690854033018240e+03
1.875890000000000100e+03	2.941591221347275223e+03
1.874329999999999927e+03	2.574511862137375829e+03
1.872779999999999973e+03	2.811398210925550757e+03
1.871220000000000027e+03	3.137892267910907321e+03
1.869660000000000082e+03	3.036502590344275177e+03
1.868099999999999909e+03	2.882300010093452784e+03
1.866549999999999955e+03	2.905105133937253868e+03
1.864990000000000009e+03	3.076493967249306934e+03
1.863430000000000064e+03	2.950499563338799362e+03
1.861869999999999891e+03	2.860804120312103350e+03
1.860309999999999945e+03	3.199100034593378041e+03
1.858750000000000000e+03	3.352196046731990918e+03
1.857190000000000055e+03	2.940602621635958258e+03
1.855630000000000109e+03	3.029899488104776538e+03
1.854069999999999936e+03	3.184600102500451158e+03
1.852509999999999991e+03	3.161699991482900259e+03
1.850950000000000045e+03	2.860600290861995745e+03
1.849380000000000109e+03	3.219392653035322837e+03
1.847819999999999936e+03	2.956203403526727470e+03
1.846259999999999991e+03	2.794804036731080942e+03
1.844700000000000045e+03	3.007493845039551616e+03
1.843130000000000109e+03	2.990101489646491700e+03
1.841569999999999936e+03	2.948807894911089988e+03
1.840009999999999991e+03	3.060991124493671123e+03
1.838440000000000055e+03	2.996501976566040412e+03
1.836880000000000109e+03	2.883098287687222182e+03
1.835309999999999945e+03	2.922824496732554962e+03
1.833750000000000000e+03	3.099052470012842605e+03
1.832180000000000064e+03	2.833739490624425343e+03
1.830619999999999891e+03	2.968787662269231987e+03
1.829049999999999955e+03	3.198505967337102902e+03
1.827490000000000009e+03	3.257181813273730313e+03
1.825920000000000073e+03	2.966111210255804963e+03
1.824349999999999909e+03	2.915700248161039326e+03
1.822789999999999964e+03	2.992896110480695370e+03
1.821220000000000027e+03	2.998601626858509462e+03
1.819650000000000091e+03	3.165199952626329377e+03
1.818079999999999927e+03	3.044903299873350079e+03
1.816509999999999991e+03	3.168192945327111829e+03
1.814940000000000055e+03	3.131606275945673133e+03
1.813380000000000109e+03	3.111898128061056923e+03
1.811809999999999945e+03	3.058488652782381905e+03
1.810240000000000009e+03	3.090451216855042276e+03
1.808670000000000073e+03	3.392204234486279347e+03
1.807099999999999909e+03	2.941200889639926572e+03
1.805519999999999982e+03	3.251844667227796890e+03
1.803950000000000045e+03	3.024223360390690232e+03
1.802380000000000109e+03	3.051991861010065350e+03
1.800809999999999945e+03	2.970901215157429306e+03
1.799240000000000009e+03	3.372799875682077527e+03
1.797670000000000073e+03	3.520294168350927521e+03
1.796089999999999918e+03	3.133332760742949176e+03
1.794519999999999982e+03	3.309068981384188646e+03
1.792950000000000045e+03	3.240412178647979545e+03
1.791369999999999891e+03	3.140901232263352085e+03
1.789799999999999955e+03	3.077691745295901455e+03
1.788220000000000027e+03	3.015008823403653423e+03
1.786650000000000091e+03	3.141494762932458798e+03
1.785069999999999936e+03	3.190400274530293245e+03
1.783500000000000000e+03	3.279899115743301991e+03
1.781920000000000073e+03	3.040106733955960863e+03
1.780349999999999909e+03	3.035503890782523740e+03
1.778769999999999982e+03	3.184080610387994511e+03
1.777190000000000055e+03	3.104220336595693425e+03
1.775619999999999891e+03	3.082972898342497501e+03
1.774039999999999964e+03	3.054533895967564149e+03
1.772460000000000036e+03	3.391886533543736277e+03
1.770880000000000109e+03	2.968300686691068677e+03
1.769309999999999945e+03	3.121688777802194636e+03
1.767730000000000018e+03	2.804342552798673296e+03
1.766150000000000091e+03	3.201960566400804510e+03
1.764569999999999936e+03	3.177983016115922055e+03
1.762990000000000009e+03	2.919247651235026751e+03
1.761410000000000082e+03	3.256676228061286110e+03
1.759829999999999927e+03	3.156902358189898678e+03
1.758250000000000000e+03	3.098899039710309808e+03
1.756670000000000073e+03	3.036112858441999833e+03
1.755079999999999927e+03	3.286667214630129365e+03
1.753500000000000000e+03	3.217728422982260781e+03
1.751920000000000073e+03	3.171670169822564731e+03
1.750339999999999918e+03	3.027222566734220891e+03
1.748759999999999991e+03	3.419797261004282973e+03
1.747170000000000073e+03	3.346602556693152565e+03
1.745589999999999918e+03	3.300911209509743458e+03
1.744009999999999991e+03	3.452773335554305959e+03
1.742420000000000073e+03	3.238404747808599950e+03
1.740839999999999918e+03	3.174418352065172712e+03
1.739250000000000000e+03	3.514597847880095287e+03
1.737670000000000073e+03	3.377899789497265829e+03
1.736079999999999927e+03	3.058413649543585052e+03
1.734500000000000000e+03	3.154791395571042358e+03
1.732910000000000082e+03	3.272099731940996207e+03
1.731329999999999927e+03	3.176184699038349663e+03
1.729740000000000009e+03	3.048205254415794570e+03
1.728150000000000091e+03	3.488289884473764232e+03
1.726559999999999945e+03	3.258431328373902033e+03
1.724980000000000018e+03	3.317694320256211540e+03
1.723390000000000100e+03	3.444684429363333038e+03
1.721799999999999955e+03	3.377808757599180353e+03
1.720210000000000036e+03	3.443399743812042288e+03
1.718619999999999891e+03	3.211111069061572380e+03
1.717029999999999973e+03	3.309307425176777997e+03
1.715440000000000055e+03	3.501970408046091052e+03
1.713849999999999909e+03	3.264608440081537083e+03
1.712259999999999991e+03	3.267800002800900074e+03
1.710670000000000073e+03	3.438993320136996317e+03
1.709079999999999927e+03	3.328299180279919256e+03
1.707490000000000009e+03	3.316641512547488674e+03
1.705900000000000091e+03	3.536459978637303266e+03
1.704309999999999945e+03	3.062401361684633230e+03
1.702710000000000036e+03	3.395774901026841690e+03
1.701119999999999891e+03	3.395114258284067546e+03
1.699529999999999973e+03	3.396709333252194938e+03
1.697930000000000064e+03	3.571397831788754047e+03
1.696339999999999918e+03	3.532699562870784575e+03
1.694750000000000000e+03	3.407317319529108318e+03
1.693150000000000091e+03	3.665576278835234916e+03
1.691559999999999945e+03	3.643296096981861865e+03
1.689960000000000036e+03	3.487700964354836742e+03
1.688369999999999891e+03	3.590594503168686515e+03
1.686769999999999982e+03	3.498411689710110750e+03
1.685180000000000064e+03	3.558406095011609068e+03
1.683579999999999927e+03	3.732996674707373586e+03
1.681980000000000018e+03	3.659599935463847487e+03
1.680380000000000109e+03	3.492202494318086337e+03
1.678789999999999964e+03	3.525919518203076223e+03
1.677190000000000055e+03	3.675081990563397085e+03
1.675589999999999918e+03	3.378900755982668215e+03
1.673990000000000009e+03	3.433890192413599380e+03
1.672390000000000100e+03	3.472899246986309208e+03
1.670799999999999955e+03	3.389999100921279933e+03
1.669200000000000045e+03	3.311800005000743113e+03
1.667599999999999909e+03	3.406807765643609400e+03
1.666000000000000000e+03	3.500150575465356724e+03
1.664390000000000100e+03	3.238728270128505301e+03
1.662789999999999964e+03	3.573596890090837405e+03
1.661190000000000055e+03	3.350248453567341585e+03
1.659589999999999918e+03	3.596748467820490532e+03
1.657990000000000009e+03	3.657016825460473683e+03
1.656390000000000100e+03	4.032297670916643710e+03
1.654779999999999973e+03	4.097437641889967381e+03
1.653180000000000064e+03	4.390966104777395230e+03
1.651579999999999927e+03	4.385804969886336039e+03
1.649970000000000027e+03	4.554492064052109527e+03
1.648369999999999891e+03	4.661625671564404911e+03
1.646769999999999982e+03	4.902474825491092815e+03
1.645160000000000082e+03	4.898300001159998828e+03
1.643559999999999945e+03	5.255096898076546495e+03
1.641950000000000045e+03	5.397655493552705593e+03
1.640349999999999909e+03	5.158931423080519380e+03
1.638740000000000009e+03	5.548178888149974227e+03
1.637130000000000109e+03	5.068322743050138342e+03
1.635529999999999973e+03	5.493421937683322540e+03
1.633920000000000073e+03	5.189300008143993182e+03
1.632309999999999945e+03	5.342374561942112450e+03
1.630700000000000045e+03	5.267301763456831395e+03
1.629099999999999909e+03	5.117602499277389143e+03
1.627490000000000009e+03	5.224699163097992823e+03
1.625880000000000109e+03	5.278888382441300564e+03
1.624269999999999982e+03	5.077602402602668917e+03
1.622660000000000082e+03	4.946901186745634732e+03
1.621049999999999955e+03	4.942083332934891587e+03
1.619440000000000055e+03	4.821414052591986547e+03
1.617829999999999927e+03	4.817699459440814280e+03
1.616220000000000027e+03	4.605919053261231056e+03
1.614609999999999900e+03	4.759394828065943329e+03
1.613000000000000000e+03	5.141599945861557899e+03
1.611380000000000109e+03	5.699511722903475857e+03
1.609769999999999982e+03	6.462672486782281339e+03
1.608160000000000082e+03	7.187501245893423402e+03
1.606549999999999955e+03	8.479176847046321200e+03
1.604930000000000064e+03	9.441315155386171682e+03
1.603319999999999936e+03	1.030159950460324399e+04
1.601710000000000036e+03	1.106691193375315197e+04
1.600089999999999918e+03	1.184679531379262153e+04
1.598480000000000018e+03	1.186709789786600049e+04
1.596859999999999900e+03	1.079222232793409967e+04
1.595250000000000000e+03	9.705292252773380824e+03
1.593630000000000109e+03	8.573499987771869201e+03
1.592019999999999982e+03	7.425199032092174093e+03
1.590400000000000091e+03	6.461117548730700946e+03
1.588779999999999973e+03	5.727199755847467713e+03
1.587160000000000082e+03	4.786050597282111994e+03
1.585549999999999955e+03	4.586774760916056039e+03
1.583930000000000064e+03	4.295300301719355048e+03
1.582309999999999945e+03	4.117214834780211277e+03
1.580690000000000055e+03	4.224893276196851730e+03
1.579069999999999936e+03	4.164301781759878395e+03
1.577450000000000045e+03	4.093301332132437437e+03
1.575839999999999918e+03	4.065000555416798306e+03
1.574220000000000027e+03	3.959793746241300141e+03
1.572599999999999909e+03	3.713918864266870060e+03
1.570970000000000027e+03	3.722299992179493529e+03
1.569349999999999909e+03	3.725010034617357178e+03
1.567730000000000018e+03	3.737387588486314144e+03
1.566109999999999900e+03	3.639804328767046627e+03
1.564490000000000009e+03	3.876974880910494448e+03
1.562869999999999891e+03	3.896202342784712982e+03
1.561240000000000009e+03	3.895599563927726649e+03
1.559619999999999891e+03	3.930995242338461594e+03
1.558000000000000000e+03	4.048800007505328722e+03
1.556369999999999891e+03	4.388486320457958755e+03
1.554750000000000000e+03	4.523099103656169063e+03
1.553119999999999891e+03	4.578905696301054377e+03
1.551500000000000000e+03	4.820995287483023276e+03
1.549869999999999891e+03	4.984899936493199675e+03
1.548250000000000000e+03	5.095833495307052544e+03
1.546619999999999891e+03	5.549482878573682683e+03
1.545000000000000000e+03	5.641718771948128961e+03
1.543369999999999891e+03	5.926731509643723257e+03
1.541740000000000009e+03	5.555500932294741688e+03
1.540119999999999891e+03	5.726427759878833058e+03
1.538490000000000009e+03	5.401622360755842237e+03
1.536859999999999900e+03	5.612770134328854510e+03
1.535230000000000018e+03	5.494037195672929556e+03
1.533599999999999909e+03	5.506393584870483210e+03
1.531970000000000027e+03	5.033450968380810991e+03
1.530339999999999918e+03	5.052299012870515980e+03
1.528710000000000036e+03	5.055422374631289131e+03
1.527079999999999927e+03	5.207691652247471211e+03
1.525450000000000045e+03	5.057000560465413400e+03
1.523819999999999936e+03	4.931714299191880855e+03
1.522190000000000055e+03	5.154200012964329289e+03
1.520559999999999945e+03	5.126649436985115244e+03
1.518930000000000064e+03	4.662505637158098580e+03
1.517299999999999955e+03	4.969513847002775947e+03
1.515660000000000082e+03	4.488023126542615501e+03
1.514029999999999973e+03	4.744274884243704037e+03
1.512400000000000091e+03	4.780302467570412773e+03
1.510759999999999991e+03	4.726005878600263713e+03
1.509130000000000109e+03	4.842775209406057002e+03
1.507490000000000009e+03	4.689401594645515615e+03
1.505859999999999900e+03	4.699695814523553054e+03
1.504220000000000027e+03	4.650299979341725702e+03
1.502589999999999918e+03	4.466823321244470208e+03
1.500950000000000045e+03	4.597097662660245987e+03
1.499319999999999936e+03	4.661814472826786186e+03
1.497680000000000064e+03	4.736391131614599544e+03
1.496039999999999964e+03	4.473005381377115555e+03
1.494410000000000082e+03	4.444418013965562750e+03
1.492769999999999982e+03	4.751284952338784933e+03
1.491130000000000109e+03	4.436405498487975819e+03
1.489490000000000009e+03	4.121106684408822730e+03
1.487849999999999909e+03	4.240978593942080806e+03
1.486210000000000036e+03	4.249904938039552690e+03
1.484569999999999936e+03	4.327273267821821719e+03
1.482930000000000064e+03	4.053701441960084139e+03
1.481289999999999964e+03	4.082119795081543089e+03
1.479650000000000091e+03	4.528698734569855333e+03
1.478009999999999991e+03	4.559999233195436318e+03
1.476369999999999891e+03	4.313700087131130203e+03
1.474730000000000018e+03	4.194899661862077664e+03
1.473089999999999918e+03	4.295200000022823588e+03
1.471450000000000045e+03	4.435659081460416928e+03
1.469799999999999955e+03	4.150500400622301640e+03
1.468160000000000082e+03	4.220038739097331018e+03
1.466519999999999982e+03	3.956900069713325593e+03
1.464869999999999891e+03	4.345862357048796184e+03
1.463230000000000018e+03	4.351499999227605258e+03
1.461579999999999927e+03	4.110202322212932813e+03
1.459940000000000055e+03	4.241400765292181859e+03
1.458289999999999964e+03	4.736331004022171328e+03
1.456650000000000091e+03	4.488303613480894455e+03
1.455000000000000000e+03	4.780656758130215167e+03
1.453359999999999900e+03	4.704801050683278845e+03
1.451710000000000036e+03	4.769220108468536637e+03
1.450059999999999945e+03	5.207992218050414522e+03
1.448410000000000082e+03	5.212302562255435078e+03
1.446769999999999982e+03	4.998400093347319853e+03
1.445119999999999891e+03	4.911912321795292883e+03
1.443470000000000027e+03	4.955876758638516549e+03
1.441819999999999936e+03	4.495106445132552835e+03
1.440170000000000073e+03	4.330215876976503750e+03
1.438519999999999982e+03	4.459896287529262736e+03
1.436869999999999891e+03	4.055700847821585285e+03
1.435220000000000027e+03	3.778800146066065281e+03
1.433569999999999936e+03	4.122054795000602098e+03
1.431920000000000073e+03	3.928600661689803928e+03
1.430269999999999982e+03	3.723409768796602293e+03
1.428619999999999891e+03	3.825997714575433292e+03
1.426960000000000036e+03	3.947205710641363567e+03
1.425309999999999945e+03	4.034082854221030630e+03
1.423660000000000082e+03	3.958811254164025286e+03
1.422009999999999991e+03	4.341087858743923789e+03
1.420349999999999909e+03	4.314799494721403789e+03
1.418700000000000045e+03	3.831684035372387825e+03
1.417039999999999964e+03	4.216089000456694521e+03
1.415390000000000100e+03	3.948440904375845093e+03
1.413730000000000018e+03	4.013086396545289062e+03
1.412079999999999927e+03	4.120009387661603796e+03
1.410420000000000073e+03	4.355885601574159409e+03
1.408769999999999982e+03	4.136898458024942556e+03
1.407109999999999900e+03	3.795279409841499273e+03
1.405450000000000045e+03	4.262482338324461125e+03
1.403799999999999955e+03	3.818854458340854308e+03
1.402140000000000100e+03	3.878876856594115907e+03
1.400480000000000018e+03	3.864804744660799770e+03
1.398819999999999936e+03	3.992983374078897214e+03
1.397160000000000082e+03	3.876399954188966149e+03
1.395500000000000000e+03	3.706711074746900522e+03
1.393839999999999918e+03	3.756294207290537088e+03
1.392180000000000064e+03	3.675599442240421013e+03
1.390519999999999982e+03	3.497705039562297316e+03
1.388859999999999900e+03	3.469999906157650003e+03
1.387200000000000045e+03	3.629411014779102061e+03
1.385539999999999964e+03	3.866583153551939631e+03
1.383880000000000109e+03	3.749706009770331548e+03
1.382220000000000027e+03	3.888795806010888555e+03
1.380559999999999945e+03	3.849698618883306153e+03
1.378890000000000100e+03	3.533344586299156163e+03
1.377230000000000018e+03	3.907549095696759196e+03
1.375569999999999936e+03	3.650604057569564702e+03
1.373900000000000091e+03	3.748188132398486232e+03
1.372240000000000009e+03	3.943901557660541130e+03
1.370569999999999936e+03	3.989093529310572649e+03
1.368910000000000082e+03	3.784824276305021613e+03
1.367240000000000009e+03	3.932698736566549087e+03
1.365579999999999927e+03	4.151814956456117216e+03
1.363910000000000082e+03	4.462876180878990453e+03
1.362240000000000009e+03	4.434300026106263431e+03
1.360579999999999927e+03	4.618884244474757907e+03
1.358910000000000082e+03	4.552898942084802002e+03
1.357240000000000009e+03	4.303401105977456609e+03
1.355569999999999936e+03	4.136388907376672250e+03
1.353900000000000091e+03	3.928006778010400467e+03
1.352240000000000009e+03	3.829792875103005827e+03
1.350569999999999936e+03	3.599723784552722918e+03
1.348900000000000091e+03	3.631596171732803214e+03
1.347230000000000018e+03	3.579909974472683189e+03
1.345559999999999945e+03	3.570862187527730839e+03
1.343890000000000100e+03	3.247605389514890248e+03
1.342220000000000027e+03	3.433284980521935722e+03
1.340539999999999964e+03	3.366902395052940392e+03
1.338869999999999891e+03	3.236402964736729700e+03
1.337200000000000045e+03	3.274289764699526586e+03
1.335529999999999973e+03	3.121630038476365826e+03
1.333849999999999909e+03	3.090786669599556262e+03
1.332180000000000064e+03	2.827625924325208416e+03
1.330509999999999991e+03	3.340423414812148621e+03
1.328829999999999927e+03	3.218022774920268603e+03
1.327160000000000082e+03	3.338882025672461623e+03
1.325480000000000018e+03	2.915562805120596749e+03
1.323809999999999945e+03	3.200882210514615963e+03
1.322130000000000109e+03	3.405402136006383444e+03
1.320460000000000036e+03	3.661554331003996140e+03
1.318779999999999973e+03	3.419336729117325831e+03
1.317109999999999900e+03	3.602098989247711415e+03
1.315430000000000064e+03	3.447720194491108487e+03
1.313750000000000000e+03	3.505994091968134853e+03
1.312069999999999936e+03	3.548199670724008683e+03
1.310390000000000100e+03	3.385198498992849636e+03
1.308720000000000027e+03	3.141205973269484730e+03
1.307039999999999964e+03	3.138604688427019937e+03
1.305359999999999900e+03	3.242195966203311400e+03
1.303680000000000064e+03	2.974736632434997318e+03
1.302000000000000000e+03	3.109676809761722780e+03
1.300319999999999936e+03	3.035900375413476468e+03
1.298640000000000100e+03	3.048498547503837472e+03
1.296960000000000036e+03	3.091801552461594838e+03
1.295269999999999982e+03	3.044491288986541349e+03
1.293589999999999918e+03	2.968600703537441859e+03
1.291910000000000082e+03	3.288268999843384790e+03
1.290230000000000018e+03	3.089111578922113040e+03
1.288539999999999964e+03	3.054306187121605035e+03
1.286859999999999900e+03	3.412794344627265673e+03
1.285180000000000064e+03	3.435324232665814634e+03
1.283490000000000009e+03	3.635791149290206249e+03
1.281809999999999945e+03	3.683599791187788469e+03
1.280119999999999891e+03	3.509400512814055219e+03
1.278440000000000055e+03	3.316791958738928770e+03
1.276750000000000000e+03	3.338933104845706112e+03
1.275069999999999936e+03	3.661897584596827073e+03
1.273380000000000109e+03	3.072914282121474571e+03
1.271690000000000055e+03	2.884392210435936704e+03
1.270009999999999991e+03	2.813190886390195374e+03
1.268319999999999936e+03	2.570900781730806557e+03
1.266630000000000109e+03	2.578900728694431564e+03
1.264940000000000055e+03	2.879406704013449598e+03
1.263250000000000000e+03	3.082465659839097952e+03
1.261559999999999945e+03	2.835414491110365816e+03
1.259869999999999891e+03	3.135499230345092656e+03
1.258180000000000064e+03	3.196592742339909364e+03
1.256490000000000009e+03	3.066334331103667864e+03
1.254799999999999955e+03	3.296278919619002863e+03
1.253109999999999900e+03	3.160000375389263809e+03
1.251420000000000073e+03	3.200199166285357023e+03
1.249730000000000018e+03	3.344898036173752189e+03
1.248039999999999964e+03	3.396684642893381351e+03
1.246339999999999918e+03	3.578620232615377518e+03
1.244650000000000091e+03	4.357198560247589739e+03
1.242960000000000036e+03	4.023010472606723397e+03
1.241259999999999991e+03	3.538720836482691539e+03
1.239569999999999936e+03	3.512481597074593992e+03
1.237880000000000109e+03	3.401902267093666069e+03
1.236180000000000064e+03	3.461599802094605820e+03
1.234490000000000009e+03	3.329383904155242362e+03
1.232789999999999964e+03	2.969445199094229793e+03
1.231089999999999918e+03	3.150859025078811101e+03
1.229400000000000091e+03	3.033710076760551146e+03
1.227700000000000045e+03	3.194899494385481830e+03
1.226000000000000000e+03	2.940419767301933462e+03
1.224309999999999945e+03	3.076450856845156522e+03
1.222609999999999900e+03	2.863650153773193779e+03
1.220910000000000082e+03	2.994267664402548689e+03
1.219210000000000036e+03	2.711403930917552316e+03
1.217509999999999991e+03	3.183092716307941828e+03
1.215809999999999945e+03	3.019812436791755772e+03
1.214109999999999900e+03	2.853107820795059069e+03
1.212410000000000082e+03	2.868083341136532454e+03
1.210710000000000036e+03	2.759009771533391358e+03
1.209009999999999991e+03	2.861299455395922905e+03
1.207309999999999945e+03	2.766001947895702415e+03
1.205609999999999900e+03	2.701993847505485064e+03
1.203900000000000091e+03	2.636612496465368622e+03
1.202200000000000045e+03	2.711183980734084798e+03
1.200500000000000000e+03	2.655707140749647351e+03
1.198799999999999955e+03	2.792399995104598929e+03
1.197089999999999918e+03	2.946499918076972335e+03
1.195390000000000100e+03	2.904900526408313453e+03
1.193680000000000064e+03	3.032210982186160436e+03
1.191980000000000018e+03	3.529083839769911719e+03
1.190269999999999982e+03	3.908715031789659406e+03
1.188569999999999936e+03	4.161979675970677818e+03
1.186859999999999900e+03	4.163112912501150277e+03
1.185160000000000082e+03	4.844998522028433399e+03
1.183450000000000045e+03	4.752713245333170562e+03
1.181740000000000009e+03	4.992087020062589545e+03
1.180029999999999973e+03	4.878883308813731674e+03
1.178329999999999927e+03	4.527457105680859058e+03
1.176619999999999891e+03	4.644137848030239184e+03
1.174910000000000082e+03	3.953332451398279318e+03
1.173200000000000045e+03	3.911593950823291834e+03
1.171490000000000009e+03	3.698000009216701073e+03
1.169779999999999973e+03	3.553600455978999435e+03
1.168069999999999936e+03	3.478491644670144524e+03
1.166359999999999900e+03	3.353844027482667116e+03
1.164650000000000091e+03	3.677094572020345367e+03
1.162940000000000055e+03	3.756558569453688506e+03
1.161220000000000027e+03	3.700771842508925602e+03
1.159509999999999991e+03	3.340824184715034335e+03
1.157799999999999955e+03	3.504193692392981120e+03
1.156089999999999918e+03	3.543940025980120481e+03
1.154369999999999891e+03	3.503980003753519668e+03
1.152660000000000082e+03	3.467355559188236839e+03
1.150940000000000055e+03	3.034569260185828625e+03
1.149230000000000018e+03	3.061493867533759385e+03
1.147509999999999991e+03	3.014186080407147529e+03
1.145799999999999955e+03	2.719925911134025228e+03
1.144079999999999927e+03	2.841691361385552227e+03
1.142369999999999891e+03	2.853890651736990549e+03
1.140650000000000091e+03	2.501798452527220888e+03
1.138930000000000064e+03	2.306719956055657349e+03
1.137220000000000027e+03	2.599286696004713576e+03
1.135500000000000000e+03	2.550907049948566964e+03
1.133779999999999973e+03	2.799997757963154982e+03
1.132059999999999945e+03	2.643400064361093882e+03
1.130339999999999918e+03	2.751899515304035049e+03
1.128619999999999891e+03	2.758901715609559233e+03
1.126900000000000091e+03	2.878896830676061654e+03
1.125180000000000064e+03	2.891703091702451729e+03
1.123460000000000036e+03	3.018301868214461592e+03
1.121740000000000009e+03	3.161590753283361209e+03
1.120019999999999982e+03	3.101051982504754051e+03
1.118299999999999955e+03	3.126263423494778181e+03
1.116579999999999927e+03	3.138011713660961505e+03
1.114849999999999909e+03	3.399054487364429860e+03
1.113130000000000109e+03	3.197246795059968008e+03
1.111410000000000082e+03	3.400945974134796415e+03
1.109680000000000064e+03	3.280717075104543255e+03
1.107960000000000036e+03	3.296778919308342665e+03
1.106240000000000009e+03	3.383875335358680331e+03
1.104509999999999991e+03	3.377885615236893045e+03
1.102789999999999964e+03	3.404034332980315412e+03
1.101059999999999945e+03	3.372326448409331533e+03
1.099329999999999927e+03	3.499278762983688921e+03
1.097609999999999900e+03	3.523333219227052268e+03
1.095880000000000109e+03	3.375752819387509135e+03
1.094150000000000091e+03	3.517965729609701157e+03
1.092430000000000064e+03	3.396466605026816524e+03
1.090700000000000045e+03	3.549958597152856328e+03
1.088970000000000027e+03	3.732218442209602472e+03
1.087240000000000009e+03	3.710258873657589902e+03
1.085509999999999991e+03	3.661466392356669530e+03
1.083779999999999973e+03	3.760049296999913167e+03
1.082049999999999955e+03	3.565849694310036739e+03
1.080319999999999936e+03	3.775299470189727799e+03
1.078589999999999918e+03	3.966310063346181778e+03
1.076859999999999900e+03	3.787511762774715407e+03
1.075130000000000109e+03	4.004594893341381521e+03
1.073390000000000100e+03	4.185778181150344608e+03
1.071660000000000082e+03	4.247265514280725256e+03
1.069930000000000064e+03	4.342275124734025667e+03
1.068200000000000045e+03	4.241253317114423226e+03
1.066460000000000036e+03	4.213413068956335337e+03
1.064730000000000018e+03	4.660777885788025742e+03
1.062990000000000009e+03	4.416507594935685120e+03
1.061259999999999991e+03	4.412275880872154630e+03
1.059519999999999982e+03	4.618661251180076761e+03
1.057789999999999964e+03	4.797976900936226230e+03
1.056049999999999955e+03	4.753376320184886026e+03
1.054319999999999936e+03	4.516484749774105694e+03
1.052579999999999927e+03	4.319638372507317399e+03
1.050839999999999918e+03	4.186260400376048892e+03
1.049099999999999909e+03	4.167483087318196340e+03
1.047369999999999891e+03	4.230034112124261810e+03
1.045630000000000109e+03	4.170703785022828924e+03
1.043890000000000100e+03	4.178137699823267212e+03
1.042150000000000091e+03	4.169421283704432426e+03
1.040410000000000082e+03	4.312719894944557382e+03
1.038670000000000073e+03	4.244440433682075309e+03
1.036930000000000064e+03	4.310976879203437420e+03
1.035190000000000055e+03	4.335030264361672380e+03
1.033450000000000045e+03	4.847661868716233585e+03
1.031710000000000036e+03	5.099833556929022961e+03
1.029960000000000036e+03	5.877052694862793942e+03
1.028220000000000027e+03	7.048412461778756551e+03
1.026480000000000018e+03	7.752530564543319088e+03
1.024740000000000009e+03	8.473028946645299584e+03
1.022990000000000009e+03	9.317451073557684140e+03
1.021250000000000000e+03	9.823408104317732068e+03
1.019500000000000000e+03	9.975036374638562847e+03
1.017759999999999991e+03	9.307880388777313783e+03
1.016009999999999991e+03	8.578299514268457642e+03
1.014269999999999982e+03	8.177320527230718653e+03
1.012519999999999982e+03	8.683503473043676422e+03
1.010779999999999973e+03	1.052342387776171745e+04
1.009029999999999973e+03	1.363229484980226152e+04
1.007279999999999973e+03	1.756636763616227108e+04
1.005529999999999973e+03	2.201818451111682589e+04
1.003789999999999964e+03	2.615418475101664080e+04
1.002039999999999964e+03	2.858475109968875040e+04
1.000289999999999964e+03	2.785849998382518606e+04
9.985380000000000109e+02	2.496610083797009429e+04
9.967889999999999873e+02	2.156293028053935632e+04
9.950389999999999873e+02	1.853640187318988683e+04
9.932880000000000109e+02	1.557470435833626652e+04
9.915370000000000346e+02	1.306587539649463724e+04
9.897859999999999445e+02	1.061819115079211588e+04
9.880339999999999918e+02	8.846339764870688668e+03
9.862820000000000391e+02	7.705119993123555105e+03
9.845289999999999964e+02	6.947819933075782501e+03
9.827759999999999536e+02	6.411136767996221351e+03
9.810230000000000246e+02	6.071193975658311501e+03
9.792690000000000055e+02	6.044600322560138920e+03
9.775149999999999864e+02	5.862031272177679966e+03
9.757599999999999909e+02	5.830697234061974086e+03
9.740049999999999955e+02	5.767820044439722551e+03
9.722500000000000000e+02	5.744000241123084379e+03
9.704940000000000282e+02	5.719514249386661504e+03
9.687380000000000564e+02	5.651036766854188500e+03
9.669809999999999945e+02	5.799987007837116835e+03
9.652240000000000464e+02	5.675437866788193787e+03
9.634669999999999845e+02	5.451402147341524142e+03
9.617089999999999463e+02	5.444938796430897128e+03
9.599510000000000218e+02	5.061500685160656758e+03
9.581920000000000073e+02	4.661715008800679243e+03
9.564329999999999927e+02	4.584205749453350109e+03
9.546730000000000018e+02	4.347002531039988753e+03
9.529130000000000109e+02	4.096520183062189972e+03
9.511530000000000200e+02	3.853577674228765318e+03
9.493920000000000528e+02	3.614385835492623755e+03
9.476309999999999718e+02	3.783285505863703293e+03
9.458700000000000045e+02	3.423782678983059213e+03
9.441079999999999472e+02	3.635671196784404401e+03
9.423450000000000273e+02	3.515180273256241435e+03
9.405829999999999700e+02	3.438321713358343459e+03
9.388189999999999600e+02	3.539578003897029248e+03
9.370560000000000400e+02	3.564248839858141309e+03
9.352920000000000300e+02	3.543030041854856336e+03
9.335270000000000437e+02	3.838379373164915705e+03
9.317630000000000337e+02	3.608819817089111439e+03
9.299969999999999573e+02	3.748215351739625021e+03
9.282319999999999709e+02	3.654706355577411614e+03
9.264660000000000082e+02	3.581120493314016130e+03
9.246989999999999554e+02	3.643420259489023010e+03
9.229320000000000164e+02	3.617345532699549949e+03
9.211649999999999636e+02	3.367316087942292143e+03
9.193970000000000482e+02	3.494037614855349148e+03
9.176290000000000191e+02	3.228860531442931915e+03
9.158609999999999900e+02	3.264772768410939079e+03
9.140919999999999845e+02	3.214336197770322087e+03
9.123220000000000027e+02	3.261286163533670788e+03
9.105520000000000209e+02	3.084601240484695609e+03
9.087820000000000391e+02	3.056481221548704980e+03
9.070119999999999436e+02	3.147461980415810103e+03
9.052409999999999854e+02	3.056471304157741088e+03
9.034690000000000509e+02	3.224249663611220058e+03
9.016970000000000027e+02	2.880903050770511072e+03
8.999249999999999545e+02	2.842685446844296166e+03
8.981520000000000437e+02	2.811033406584900604e+03
8.963790000000000191e+02	2.947377800562039283e+03
8.946059999999999945e+02	2.910859398879399578e+03
8.928319999999999936e+02	2.775774599854291864e+03
8.910579999999999927e+02	2.844940632776694656e+03
8.892830000000000155e+02	2.701802988426471984e+03
8.875080000000000382e+02	2.776318210620041100e+03
8.857319999999999709e+02	2.857646580334690498e+03
8.839560000000000173e+02	2.901128042211042612e+03
8.821799999999999500e+02	2.801420781867184360e+03
8.804030000000000200e+02	3.009610765044310938e+03
8.786259999999999764e+02	3.026352309217975289e+03
8.768479999999999563e+02	3.099576053624820815e+03
8.750700000000000500e+02	3.144160316606008109e+03
8.732910000000000537e+02	3.347743217222978274e+03
8.715119999999999436e+02	3.528225708712677715e+03
8.697329999999999472e+02	3.408021040297760010e+03
8.679529999999999745e+02	3.520400491889264686e+03
8.661730000000000018e+02	3.680837851552172651e+03
8.643920000000000528e+02	3.753014043888313608e+03
8.626109999999999900e+02	4.409835529507594401e+03
8.608300000000000409e+02	4.681096818287118367e+03
8.590480000000000018e+02	4.962870509077643874e+03
8.572659999999999627e+02	5.255960064854667507e+03
8.554829999999999472e+02	5.777517179975823638e+03
8.537000000000000455e+02	5.728212805609568932e+03
8.519170000000000300e+02	5.647600049899435362e+03
8.501330000000000382e+02	5.554294849877344859e+03
8.483479999999999563e+02	5.278112994640726356e+03
8.465639999999999645e+02	5.001777966906810434e+03
8.447780000000000200e+02	4.420823343152684174e+03
8.429930000000000518e+02	4.027792419687935308e+03
8.412069999999999936e+02	3.904175687099455445e+03
8.394199999999999591e+02	3.580872745854810091e+03
8.376330000000000382e+02	3.538804345147389085e+03
8.358460000000000036e+02	3.198386759921469547e+03
8.340579999999999927e+02	3.232022338851377299e+03
8.322699999999999818e+02	2.967059077292708935e+03
8.304819999999999709e+02	3.172676340275176244e+03
8.286929999999999836e+02	3.082805831195148585e+03
8.269030000000000200e+02	2.944572806012608453e+03
8.251130000000000564e+02	2.819820680970236026e+03
8.233229999999999791e+02	2.840384225868267549e+03
8.215330000000000155e+02	2.657966420219957854e+03
8.197409999999999854e+02	2.760339996256728682e+03
8.179500000000000455e+02	2.525310569224322990e+03
8.161580000000000155e+02	2.668941691766610802e+03
8.143659999999999854e+02	2.549161783191357245e+03
8.125729999999999791e+02	2.530717979792314964e+03
8.107799999999999727e+02	2.398489121742088173e+03
8.089859999999999900e+02	2.620929981189078262e+03
8.071920000000000073e+02	2.599161782121968827e+03
8.053980000000000246e+02	2.738159146160584442e+03
8.036029999999999518e+02	2.712455654448282985e+03
8.018070000000000164e+02	2.836845571990873395e+03
8.000119999999999436e+02	2.704201094088957689e+03
7.982150000000000318e+02	2.809648044411205319e+03
7.964189999999999827e+02	3.022674752682824419e+03
7.946219999999999573e+02	2.886176709126471906e+03
7.928239999999999554e+02	3.045378617921770910e+03
7.910270000000000437e+02	2.955180445039258757e+03
7.892279999999999518e+02	3.007265029770744150e+03
7.874299999999999500e+02	2.930183123380653342e+03
7.856299999999999955e+02	2.957255035098860390e+03
7.838310000000000173e+02	2.921525440306385462e+03
7.820309999999999491e+02	2.967759782723418994e+03
7.802300000000000182e+02	3.017085810764989219e+03
7.784299999999999500e+02	3.097438573336575246e+03
7.766280000000000427e+02	3.079507335290730680e+03
7.748269999999999982e+02	3.208097128986143616e+03
7.730249999999999773e+02	3.246438960104481794e+03
7.712219999999999800e+02	3.176026991474514489e+03
7.694189999999999827e+02	3.276800000763725620e+03
7.676159999999999854e+02	3.401915503249094400e+03
7.658120000000000118e+02	3.314879098379748029e+03
7.640080000000000382e+02	3.162526392233848128e+03
7.622029999999999745e+02	3.255739402884095853e+03
7.603980000000000246e+02	3.280696705464243223e+03
7.585919999999999845e+02	3.039491894091736867e+03
7.567859999999999445e+02	3.036640051376192787e+03
7.549800000000000182e+02	3.062983160047462661e+03
7.531730000000000018e+02	2.810421029228908083e+03
7.513659999999999854e+02	2.768523562384638353e+03
7.495579999999999927e+02	2.706507475294894448e+03
7.477500000000000000e+02	2.877593179011435495e+03
7.459410000000000309e+02	2.656824408127467450e+03
7.441319999999999482e+02	2.958566420710825241e+03
7.423229999999999791e+02	2.743759944227152573e+03
7.405130000000000337e+02	2.403264137115893391e+03
7.387029999999999745e+02	2.550969571035011995e+03
7.368920000000000528e+02	2.635779908327147950e+03
7.350810000000000173e+02	2.593146468183608704e+03
7.332699999999999818e+02	2.531819882350880562e+03
7.314579999999999700e+02	2.422292715799594589e+03
7.296449999999999818e+02	2.760179900438306049e+03
7.278319999999999936e+02	2.617510203522718712e+03
7.260190000000000055e+02	2.593660560837563480e+03
7.242050000000000409e+02	2.790660337163325948e+03
7.223909999999999627e+02	2.468422489149068042e+03
7.205769999999999982e+02	2.655969490008370030e+03
7.187619999999999436e+02	2.618181727287829290e+03
7.169460000000000264e+02	2.765428710193762527e+03
7.151299999999999955e+02	2.832240549244957947e+03
7.133139999999999645e+02	2.914734868208756779e+03
7.114969999999999573e+02	2.930860229610501392e+03
7.096799999999999500e+02	2.999781554298467654e+03
7.078630000000000564e+02	3.062019565930901535e+03
7.060449999999999591e+02	3.053632818677494924e+03
7.042259999999999991e+02	3.337200002387544373e+03
7.024070000000000391e+02	3.515541832540883661e+03
7.005879999999999654e+02	3.266920013724714863e+03
6.987680000000000291e+02	3.206505187738085624e+03
6.969479999999999791e+02	3.135940732793059396e+03
6.951269999999999527e+02	3.226334255726947049e+03
6.933060000000000400e+02	3.034744764449196282e+03
6.914850000000000136e+02	3.166095634128349502e+03
6.896630000000000109e+02	2.977347437253716635e+03
6.878410000000000082e+02	2.959048997158629845e+03
6.860180000000000291e+02	2.816587063505382503e+03
6.841950000000000500e+02	2.859998267844874135e+03
6.823709999999999809e+02	2.893939237932095693e+03
6.805470000000000255e+02	2.838879559771486583e+03
6.787219999999999800e+02	2.825893551508448581e+03
6.768970000000000482e+02	3.003879999745631267e+03
6.750720000000000027e+02	2.973902929056264384e+03
6.732459999999999809e+02	3.205397349936590217e+03
6.714199999999999591e+02	3.195564898484963578e+03
6.695929999999999609e+02	3.227624442313480358e+03
6.677659999999999627e+02	3.293091446892080512e+03
6.659379999999999882e+02	3.028339953130560843e+03
6.641100000000000136e+02	3.110979548362618516e+03
6.622820000000000391e+02	3.154018469916051799e+03
6.604529999999999745e+02	3.170701196623577289e+03
6.586230000000000473e+02	3.248140322889568779e+03
6.567939999999999827e+02	3.028276819290041658e+03
6.549629999999999654e+02	3.202593178141014050e+03
6.531330000000000382e+02	3.066710527642673696e+03
6.513020000000000209e+02	2.896299998868871171e+03
6.494700000000000273e+02	2.673181342722075442e+03
6.476380000000000337e+02	2.454738766578661398e+03
6.458060000000000400e+02	2.330785308670162522e+03
6.439729999999999563e+02	2.389706347641639695e+03
6.421399999999999864e+02	2.163300018270574128e+03
6.403060000000000400e+02	1.975765979684439799e+03
6.384719999999999800e+02	1.915854661588623230e+03
6.366369999999999436e+02	1.770907773424354900e+03
6.348020000000000209e+02	1.888235393096463440e+03
6.329669999999999845e+02	1.818880291275487480e+03
6.311309999999999718e+02	2.068350627419925331e+03
6.292939999999999827e+02	1.987880131039261869e+03
6.274569999999999936e+02	2.319236900746077026e+03
6.256200000000000045e+02	2.349680351763096496e+03
6.237820000000000391e+02	2.351623295687264090e+03
6.219439999999999600e+02	2.689092937485925177e+03
6.201059999999999945e+02	2.835305665875968316e+03
6.182670000000000528e+02	2.931439931807313314e+03
6.164270000000000209e+02	3.038130238970657047e+03
6.145869999999999891e+02	3.292026515107140312e+03
6.127469999999999573e+02	3.305100612338341307e+03
6.109059999999999491e+02	3.477310297428202375e+03
6.090650000000000546e+02	3.321654134603351395e+03
6.072229999999999563e+02	2.979343899442570091e+03
6.053809999999999718e+02	3.090150730813055361e+03
6.035380000000000109e+02	2.879088743335758409e+03
6.016950000000000500e+02	2.804634610718676413e+03
5.998519999999999754e+02	2.662955254932879143e+03
5.980080000000000382e+02	3.019168842382597177e+03
5.961639999999999873e+02	2.936005486849602676e+03
5.943189999999999600e+02	3.031277844684883803e+03
5.924740000000000464e+02	3.065993789295956049e+03
5.906280000000000427e+02	2.934429885321148959e+03
5.887820000000000391e+02	3.213980534342423198e+03
5.869349999999999454e+02	2.756483086421586449e+03
5.850879999999999654e+02	3.009175025583429942e+03
5.832409999999999854e+02	2.983535875655662494e+03
5.813930000000000291e+02	2.953354737343159741e+03
5.795449999999999591e+02	2.794960162053648219e+03
5.776960000000000264e+02	2.716082965940971008e+03
5.758469999999999800e+02	2.756496111114026462e+03
5.739969999999999573e+02	2.722900034546668849e+03
5.721470000000000482e+02	2.640832067899228605e+03
5.702960000000000491e+02	2.459760580664098597e+03
5.684450000000000500e+02	2.565055797927938784e+03
5.665940000000000509e+02	2.401026446347114415e+03
5.647419999999999618e+02	2.373396015333961714e+03
5.628890000000000100e+02	2.145616485343637123e+03
5.610359999999999445e+02	2.232519603090100190e+03
5.591829999999999927e+02	1.986523859695532110e+03
5.573289999999999509e+02	2.084932583868839174e+03
5.554750000000000227e+02	1.929184234477834025e+03
5.536209999999999809e+02	2.082056965100137859e+03
5.517659999999999627e+02	2.077237758810161722e+03
5.499099999999999682e+02	1.962785604139426368e+03
5.480539999999999736e+02	2.045299966573433267e+03
5.461979999999999791e+02	2.108098014983106168e+03
5.443410000000000082e+02	2.000719690127194553e+03
5.424829999999999472e+02	1.928604800126786131e+03
5.406259999999999764e+02	2.033619988463520258e+03
5.387670000000000528e+02	1.987923845652630916e+03
5.369089999999999918e+02	1.927731064901983245e+03
5.350499999999999545e+02	1.835526570298020715e+03
5.331900000000000546e+02	1.989119983269978320e+03
5.313300000000000409e+02	2.033584454048859925e+03
5.294700000000000273e+02	2.077111214252008267e+03
5.276090000000000373e+02	2.001663987288737871e+03
5.257469999999999573e+02	2.071880033473996264e+03
5.238849999999999909e+02	2.130112580994636573e+03
5.220230000000000246e+02	2.000009336009059098e+03
5.201599999999999682e+02	2.290176887707312289e+03
5.182970000000000255e+02	2.215282702253246043e+03
5.164339999999999691e+02	2.283418242676899808e+03
5.145700000000000500e+02	2.238361551665561819e+03
5.127050000000000409e+02	2.253588098274777167e+03
5.108399999999999750e+02	2.407253649183408925e+03
5.089750000000000227e+02	2.360580034318284106e+03
5.071089999999999804e+02	2.351411806835127663e+03
5.052420000000000186e+02	2.122645077885633327e+03
5.033750000000000000e+02	2.280338668823151693e+03
5.015079999999999814e+02	2.201924520347529779e+03
4.996399999999999864e+02	2.301760001850091612e+03
4.977719999999999914e+02	2.419192229376813430e+03
4.959039999999999964e+02	2.305427792104618675e+03
4.940350000000000250e+02	2.570213045260286435e+03
4.921650000000000205e+02	2.437488584094457110e+03
4.902950000000000159e+02	2.424879854054839598e+03
4.884250000000000114e+02	2.335302094473564011e+03
4.865539999999999736e+02	2.379837069450327817e+03
4.846820000000000164e+02	2.443704078327774823e+03
4.828100000000000023e+02	2.463071595612655074e+03
4.809379999999999882e+02	2.355964204283930030e+03
4.790649999999999977e+02	2.465919663383878287e+03
4.771920000000000073e+02	2.281371235750549204e+03
4.753190000000000168e+02	2.371010409913474177e+03
4.734440000000000168e+02	2.231264081186440308e+03
4.715699999999999932e+02	2.604806729140340849e+03
4.696949999999999932e+02	2.366408604819197080e+03
4.678190000000000168e+02	2.476159999300495656e+03
4.659429999999999836e+02	2.460624141665922252e+03
4.640670000000000073e+02	2.630573499738870851e+03
4.621899999999999977e+02	2.626717722791393498e+03
4.603129999999999882e+02	2.531289829475139868e+03
4.584350000000000023e+02	2.579891550787232518e+03
4.565570000000000164e+02	2.505782509506313545e+03
4.546779999999999973e+02	2.684259981358214191e+03
4.527989999999999782e+02	2.733098900641077307e+03
4.509189999999999827e+02	2.684569814941938148e+03
4.490389999999999873e+02	2.786558944511202753e+03
4.471589999999999918e+02	2.583843372306087986e+03
4.452780000000000200e+02	2.632641930844450599e+03
4.433960000000000150e+02	2.528352512412518536e+03
4.415140000000000100e+02	2.650475395047561506e+03
4.396320000000000050e+02	2.375660046345325554e+03
4.377490000000000236e+02	2.543713997657989239e+03
4.358659999999999854e+02	2.402217626713646951e+03
4.339820000000000277e+02	2.626893805444773989e+03
4.320980000000000132e+02	2.406563234424423626e+03
4.302130000000000223e+02	2.365641815734689317e+03
4.283279999999999745e+02	2.265814944055295655e+03
4.264420000000000073e+02	2.502115764194878466e+03
4.245559999999999832e+02	2.555236447894280900e+03
4.226689999999999827e+02	2.377561870615577845e+03
4.207819999999999823e+02	2.550319969416937965e+03
4.188949999999999818e+02	2.466222624545540839e+03
4.170070000000000050e+02	2.760937353503785744e+03
4.151190000000000282e+02	2.892372477616179822e+03
4.132300000000000182e+02	2.751916439896073825e+03
4.113399999999999750e+02	3.016374262022342009e+03
4.094510000000000218e+02	3.089421917371147629e+03
4.075600000000000023e+02	2.811491275275202952e+03
4.056700000000000159e+02	2.950152989724685540e+03
4.037780000000000200e+02	2.697495289806851360e+03
4.018870000000000005e+02	2.660875662751469463e+03
3.999950000000000045e+02	2.557739228547952735e+03
3.981019999999999754e+02	2.369241721417568442e+03
3.962090000000000032e+02	2.241338907361850033e+03
3.943149999999999977e+02	1.954840163625770629e+03
3.924209999999999923e+02	1.967000007916759159e+03
3.905269999999999868e+02	2.127559365454135786e+03
3.886320000000000050e+02	1.999241130598244126e+03
3.867370000000000232e+02	2.046220705429617510e+03
3.848410000000000082e+02	2.195056783627710956e+03
3.829440000000000168e+02	2.121243402292900555e+03
3.810480000000000018e+02	2.072936122081232952e+03
3.791499999999999773e+02	1.987284932041670345e+03
3.772529999999999859e+02	2.064015008366862276e+03
3.753539999999999850e+02	2.136989542639464162e+03
3.734560000000000173e+02	2.198096543074545934e+03
3.715570000000000164e+02	1.936477522991402111e+03
3.696569999999999823e+02	2.241236313383207744e+03
3.677570000000000050e+02	2.022103736902824721e+03
3.658559999999999945e+02	2.349283509423594296e+03
3.639549999999999841e+02	2.177803147032896049e+03
3.620539999999999736e+02	2.210329431523148742e+03
3.601519999999999868e+02	2.160159912871645247e+03
3.582490000000000236e+02	2.150628185386902715e+03
3.563460000000000036e+02	2.363713366937431147e+03
3.544429999999999836e+02	2.415199460024736254e+03
3.525389999999999873e+02	2.336582409862079658e+03
3.506349999999999909e+02	2.298658178365416006e+03
3.487300000000000182e+02	2.308884065673441910e+03
3.468249999999999886e+02	2.391033767397147585e+03
3.449189999999999827e+02	2.377506424185462492e+03
3.430129999999999768e+02	2.453856688379658863e+03
3.411059999999999945e+02	2.371635638861675034e+03
3.391990000000000123e+02	2.233711673831785902e+03
3.372909999999999968e+02	2.368926597724115254e+03
3.353829999999999814e+02	2.121690703407048659e+03
3.334750000000000227e+02	2.220532749541055637e+03
3.315649999999999977e+02	2.070883737903453493e+03
3.296560000000000059e+02	2.257598768317161557e+03
3.277459999999999809e+02	2.137700059745667204e+03
3.258349999999999795e+02	2.028320009561346296e+03
3.239239999999999782e+02	2.094700187506659404e+03
3.220129999999999768e+02	2.199338794468928882e+03
3.201009999999999991e+02	2.087400318888133825e+03
3.181890000000000214e+02	2.004823700429830524e+03
3.162760000000000105e+02	2.108573611603634617e+03
3.143629999999999995e+02	2.114644940305862292e+03
3.124490000000000123e+02	2.236863530068157161e+03
3.105339999999999918e+02	2.319622819490424263e+03
3.086200000000000045e+02	2.135300665530151491e+03
3.067040000000000077e+02	2.355553803515389973e+03
3.047889999999999873e+02	2.378450054457261558e+03
3.028720000000000141e+02	2.115950898686975506e+03
3.009560000000000173e+02	2.340475521431711513e+03
2.990389999999999873e+02	2.293200294182119706e+03
2.971209999999999809e+02	2.557338626626988116e+03
2.952029999999999745e+02	2.497526653062003334e+03
2.932839999999999918e+02	2.675666949911726533e+03
2.913650000000000091e+02	2.519191235801068615e+03
2.894460000000000264e+02	2.624342460795222451e+03
2.875260000000000105e+02	2.880350053848664629e+03
2.856050000000000182e+02	2.886425698266804829e+03
2.836840000000000259e+02	2.887335519636841582e+03
2.817629999999999768e+02	2.935463975052716705e+03
2.798410000000000082e+02	3.231559891783281728e+03
2.779180000000000064e+02	3.108265439085281741e+03
2.759950000000000045e+02	3.589084410901967203e+03
2.740720000000000027e+02	3.529649338728545445e+03
2.721480000000000246e+02	3.478143705761262481e+03
2.702239999999999895e+02	3.639314356627872712e+03
2.682989999999999782e+02	3.788081946303329460e+03
2.663729999999999905e+02	4.067801258660404528e+03
2.644479999999999791e+02	4.349099994464623705e+03
2.625210000000000150e+02	4.292404051293216071e+03
2.605939999999999941e+02	4.549290901016951466e+03
2.586669999999999732e+02	4.800811567944615490e+03
2.567389999999999759e+02	5.272793670852831383e+03
2.548110000000000070e+02	5.606896073281042845e+03
2.528820000000000050e+02	5.881202318665881648e+03
2.509530000000000030e+02	6.558599942375256433e+03
2.490240000000000009e+02	7.189196641863341029e+03
2.470929999999999893e+02	7.664321200635245987e+03
2.451630000000000109e+02	8.271262579727066623e+03
2.432319999999999993e+02	8.102519543184213944e+03
2.413000000000000114e+02	8.324398948390145961e+03
2.393679999999999950e+02	8.772400042276161912e+03
2.374350000000000023e+02	8.936087266684700808e+03
2.355020000000000095e+02	8.465239814703458251e+03
2.335689999999999884e+02	8.737168046041770140e+03
2.316339999999999861e+02	8.649905661325672554e+03
2.296999999999999886e+02	8.705900844138053799e+03
2.277649999999999864e+02	8.967895369619771373e+03
2.258290000000000077e+02	8.840723102901929451e+03
2.238930000000000007e+02	9.412389568783755749e+03
2.219569999999999936e+02	9.889789139636366599e+03
2.200200000000000102e+02	1.002010319864020130e+04
2.180819999999999936e+02	1.052589638005563211e+04
2.161440000000000055e+02	1.063451199551469836e+04
2.142059999999999889e+02	1.097629849237201597e+04
2.122669999999999959e+02	1.138399799231699399e+04
2.103280000000000030e+02	1.153709982565476275e+04
2.083880000000000052e+02	1.154140231733024848e+04
2.064470000000000027e+02	1.179950345451772228e+04
2.045060000000000002e+02	1.200518194507341286e+04
2.025649999999999977e+02	1.177110556389460180e+04
2.006229999999999905e+02	1.193649929384283496e+04
1.986810000000000116e+02	1.236481880068925784e+04
1.967379999999999995e+02	1.309195330811720851e+04
1.947940000000000111e+02	1.304352038002373592e+04
1.928499999999999943e+02	1.367969994752540879e+04
1.909060000000000059e+02	1.435981020372493731e+04
1.889610000000000127e+02	1.553299460263989567e+04
1.870159999999999911e+02	1.675570000000183427e+04
1.850699999999999932e+02	1.764930000000001019e+04
