1.933269999999999982e+03	1.103206000000000131e+04
1.931720000000000027e+03	1.106586000000759668e+04
1.930180000000000064e+03	1.115751716466774451e+04
1.928630000000000109e+03	1.105890300914046566e+04
1.927079999999999927e+03	1.105904050428421215e+04
1.925539999999999964e+03	1.114425869874257478e+04
1.923990000000000009e+03	1.115597345994382340e+04
1.922440000000000055e+03	1.109351530174384607e+04
1.920900000000000091e+03	1.114927301568375515e+04
1.919349999999999909e+03	1.113746571874254369e+04
1.917799999999999955e+03	1.136641706372699264e+04
1.916250000000000000e+03	1.113782656820472948e+04
1.914710000000000036e+03	1.128802575984596842e+04
1.913160000000000082e+03	1.106566710525184317e+04
1.911609999999999900e+03	1.130756576458121344e+04
1.910059999999999945e+03	1.114969833346790256e+04
1.908509999999999991e+03	1.125617400819221621e+04
1.906960000000000036e+03	1.129488042884329479e+04
1.905410000000000082e+03	1.128362042553274478e+04
1.903859999999999900e+03	1.132153989499572708e+04
1.902309999999999945e+03	1.134868000088800363e+04
1.900750000000000000e+03	1.135710002796908702e+04
1.899200000000000045e+03	1.134683999003297868e+04
1.897650000000000091e+03	1.135046018919563903e+04
1.896099999999999909e+03	1.146963827565837710e+04
1.894549999999999955e+03	1.135234456495962331e+04
1.892990000000000009e+03	1.152195765626487628e+04
1.891440000000000055e+03	1.149836260791511449e+04
1.889890000000000100e+03	1.154605886229747193e+04
1.888329999999999927e+03	1.157221907029580689e+04
1.886779999999999973e+03	1.155008366978197046e+04
1.885220000000000027e+03	1.157767474941935689e+04
1.883670000000000073e+03	1.150089132407834586e+04
1.882109999999999900e+03	1.164232889998396058e+04
1.880559999999999945e+03	1.154501476478675613e+04
1.879000000000000000e+03	1.170803218863605798e+04
1.877450000000000045e+03	1.166480012216580144e+04
1.875890000000000100e+03	1.157750638751319275e+04
1.874329999999999927e+03	1.167413296639156761e+04
1.872779999999999973e+03	1.167613154754013703e+04
1.871220000000000027e+03	1.180212872605151279e+04
1.869660000000000082e+03	1.166578744144510347e+04
1.868099999999999909e+03	1.168173649508316703e+04
1.866549999999999955e+03	1.167734298355304963e+04
1.864990000000000009e+03	1.174761861676425906e+04
1.863430000000000064e+03	1.182434070743489792e+04
1.861869999999999891e+03	1.192278092645097604e+04
1.860309999999999945e+03	1.191859670643279605e+04
1.858750000000000000e+03	1.170474311912684971e+04
1.857190000000000055e+03	1.184513872064468706e+04
1.855630000000000109e+03	1.187464031285804231e+04
1.854069999999999936e+03	1.188207989252951666e+04
1.852509999999999991e+03	1.183536000390614754e+04
1.850950000000000045e+03	1.195507991024732110e+04
1.849380000000000109e+03	1.194342310571528469e+04
1.847819999999999936e+03	1.201919341372898089e+04
1.846259999999999991e+03	1.183863082692286298e+04
1.844700000000000045e+03	1.207826897855708012e+04
1.843130000000000109e+03	1.198868961251606743e+04
1.841569999999999936e+03	1.191749460178723348e+04
1.840009999999999991e+03	1.192219081976140660e+04
1.838440000000000055e+03	1.207988186313026381e+04
1.836880000000000109e+03	1.203459193957315983e+04
1.835309999999999945e+03	1.206884107541721096e+04
1.833750000000000000e+03	1.208270134851463445e+04
1.832180000000000064e+03	1.198590913817640649e+04
1.830619999999999891e+03	1.218632152301767383e+04
1.829049999999999955e+03	1.217191592146568655e+04
1.827490000000000009e+03	1.202535100249106472e+04
1.825920000000000073e+03	1.211073884709388949e+04
1.824349999999999909e+03	1.221473739819478578e+04
1.822789999999999964e+03	1.215954170225112830e+04
1.821220000000000027e+03	1.211649972244574383e+04
1.819650000000000091e+03	1.208074000844433431e+04
1.818079999999999927e+03	1.210889926088822722e+04
1.816509999999999991e+03	1.209956043759098611e+04
1.814940000000000055e+03	1.222579117343370490e+04
1.813380000000000109e+03	1.243971327943679353e+04
1.811809999999999945e+03	1.223150016659132780e+04
1.810240000000000009e+03	1.234239833583740801e+04
1.808670000000000073e+03	1.225188066445873665e+04
1.807099999999999909e+03	1.240655002585812690e+04
1.805519999999999982e+03	1.225872111867019703e+04
1.803950000000000045e+03	1.223221664927536403e+04
1.802380000000000109e+03	1.254978735068019341e+04
1.800809999999999945e+03	1.232804218663843494e+04
1.799240000000000009e+03	1.261219919389300412e+04
1.797670000000000073e+03	1.246784644296074293e+04
1.796089999999999918e+03	1.253476116753722454e+04
1.794519999999999982e+03	1.244460127955979442e+04
1.792950000000000045e+03	1.260880903426195073e+04
1.791369999999999891e+03	1.269325485237032080e+04
1.789799999999999955e+03	1.264356887567115336e+04
1.788220000000000027e+03	1.266709697127564505e+04
1.786650000000000091e+03	1.263463902812708693e+04
1.785069999999999936e+03	1.260688016332390544e+04
1.783500000000000000e+03	1.271159954435506370e+04
1.781920000000000073e+03	1.267156292855585707e+04
1.780349999999999909e+03	1.268721833981028976e+04
1.778769999999999982e+03	1.277480725738819092e+04
1.777190000000000055e+03	1.289016190464247666e+04
1.775619999999999891e+03	1.286536493443514701e+04
1.774039999999999964e+03	1.296124154429914415e+04
1.772460000000000036e+03	1.275336372542949903e+04
1.770880000000000109e+03	1.279179997676971288e+04
1.769309999999999945e+03	1.286363792255728913e+04
1.767730000000000018e+03	1.281593467312689427e+04
1.766150000000000091e+03	1.300271728635259569e+04
1.764569999999999936e+03	1.292544899187601186e+04
1.762990000000000009e+03	1.285726274002490572e+04
1.761410000000000082e+03	1.291801795732275423e+04
1.759829999999999927e+03	1.302236080532641608e+04
1.758250000000000000e+03	1.314157930664040941e+04
1.756670000000000073e+03	1.301288398999978017e+04
1.755079999999999927e+03	1.294391820661288511e+04
1.753500000000000000e+03	1.295914313785282684e+04
1.751920000000000073e+03	1.301057436780382523e+04
1.750339999999999918e+03	1.301060379020767868e+04
1.748759999999999991e+03	1.305439916295484545e+04
1.747170000000000073e+03	1.305186482275341041e+04
1.745589999999999918e+03	1.319637935712510989e+04
1.744009999999999991e+03	1.300346211895652596e+04
1.742420000000000073e+03	1.305270323279122022e+04
1.740839999999999918e+03	1.316926249379397996e+04
1.739250000000000000e+03	1.307730303415520575e+04
1.737670000000000073e+03	1.331457799952737150e+04
1.736079999999999927e+03	1.320163560601754580e+04
1.734500000000000000e+03	1.328901689173800150e+04
1.732910000000000082e+03	1.336236197039028048e+04
1.731329999999999927e+03	1.326061825242164741e+04
1.729740000000000009e+03	1.342097815659625303e+04
1.728150000000000091e+03	1.338900087709540458e+04
1.726559999999999945e+03	1.333917974519400195e+04
1.724980000000000018e+03	1.341071281043009731e+04
1.723390000000000100e+03	1.352945085694208319e+04
1.721799999999999955e+03	1.340629378854289462e+04
1.720210000000000036e+03	1.367255972244484292e+04
1.718619999999999891e+03	1.362316643571892928e+04
1.717029999999999973e+03	1.367829470532303640e+04
1.715440000000000055e+03	1.383806357263812060e+04
1.713849999999999909e+03	1.365941871041339436e+04
1.712259999999999991e+03	1.384203998372988644e+04
1.710670000000000073e+03	1.374204836186681860e+04
1.709079999999999927e+03	1.383871943875430225e+04
1.707490000000000009e+03	1.398204773677636695e+04
1.705900000000000091e+03	1.392196392366966757e+04
1.704309999999999945e+03	1.393006006119828089e+04
1.702710000000000036e+03	1.398857502076153105e+04
1.701119999999999891e+03	1.391986866389276656e+04
1.699529999999999973e+03	1.392991703700245671e+04
1.697930000000000064e+03	1.395808047735778928e+04
1.696339999999999918e+03	1.396233974911094992e+04
1.694750000000000000e+03	1.392330437754715422e+04
1.693150000000000091e+03	1.405024062468792545e+04
1.691559999999999945e+03	1.423551605908636338e+04
1.689960000000000036e+03	1.431264012642280977e+04
1.688369999999999891e+03	1.433185812725427058e+04
1.686769999999999982e+03	1.435882180200290532e+04
1.685180000000000064e+03	1.455914728250151165e+04
1.683579999999999927e+03	1.446701021154953560e+04
1.681980000000000018e+03	1.454823643742204877e+04
1.680380000000000109e+03	1.434950257160320689e+04
1.678789999999999964e+03	1.446775816855710036e+04
1.677190000000000055e+03	1.461743206340730831e+04
1.675589999999999918e+03	1.448194028053516558e+04
1.673990000000000009e+03	1.450230315452449940e+04
1.672390000000000100e+03	1.459954420615917479e+04
1.670799999999999955e+03	1.448678489035178245e+04
1.669200000000000045e+03	1.448728001246019812e+04
1.667599999999999909e+03	1.460060892907908419e+04
1.666000000000000000e+03	1.453768151722702532e+04
1.664390000000000100e+03	1.468137692551575674e+04
1.662789999999999964e+03	1.472899956484510039e+04
1.661190000000000055e+03	1.465925659708047533e+04
1.659589999999999918e+03	1.481633746351608352e+04
1.657990000000000009e+03	1.482958640457285583e+04
1.656390000000000100e+03	1.494601942204612351e+04
1.654779999999999973e+03	1.494455912212283874e+04
1.653180000000000064e+03	1.495795185493573081e+04
1.651579999999999927e+03	1.514253773150597408e+04
1.649970000000000027e+03	1.517158052218296143e+04
1.648369999999999891e+03	1.519800990986298166e+04
1.646769999999999982e+03	1.534315180545908879e+04
1.645160000000000082e+03	1.535462000018838080e+04
1.643559999999999945e+03	1.534873787055142748e+04
1.641950000000000045e+03	1.535644470572262071e+04
1.640349999999999909e+03	1.546930025535219829e+04
1.638740000000000009e+03	1.558033855765360022e+04
1.637130000000000109e+03	1.558498799613161827e+04
1.635529999999999973e+03	1.567601735677876241e+04
1.633920000000000073e+03	1.578824000037693440e+04
1.632309999999999945e+03	1.589007455905936695e+04
1.630700000000000045e+03	1.592124901631400826e+04
1.629099999999999909e+03	1.603303769112199006e+04
1.627490000000000009e+03	1.612542498299793260e+04
1.625880000000000109e+03	1.638194743211935929e+04
1.624269999999999982e+03	1.652572188942655703e+04
1.622660000000000082e+03	1.664759897595109942e+04
1.621049999999999955e+03	1.684870116716420307e+04
1.619440000000000055e+03	1.727234169189740351e+04
1.617829999999999927e+03	1.742392039867921267e+04
1.616220000000000027e+03	1.775107541672337538e+04
1.614609999999999900e+03	1.805661672332527087e+04
1.613000000000000000e+03	1.820074012909691737e+04
1.611380000000000109e+03	1.819651965506881606e+04
1.609769999999999982e+03	1.795603611548540357e+04
1.608160000000000082e+03	1.802415887378439584e+04
1.606549999999999955e+03	1.765981652051108540e+04
1.604930000000000064e+03	1.740827239474433736e+04
1.603319999999999936e+03	1.707339952947289203e+04
1.601710000000000036e+03	1.668755533852345252e+04
1.600089999999999918e+03	1.661237373433202447e+04
1.598480000000000018e+03	1.632660119855049743e+04
1.596859999999999900e+03	1.618827453910408622e+04
1.595250000000000000e+03	1.603507882732727376e+04
1.593630000000000109e+03	1.586864003410105033e+04
1.592019999999999982e+03	1.580729956512610988e+04
1.590400000000000091e+03	1.578289822316733444e+04
1.588779999999999973e+03	1.573702000461263196e+04
1.587160000000000082e+03	1.571787896352966527e+04
1.585549999999999955e+03	1.577030698810334798e+04
1.583930000000000064e+03	1.586041889331156199e+04
1.582309999999999945e+03	1.573145940252759647e+04
1.580690000000000055e+03	1.582137818223084105e+04
1.579069999999999936e+03	1.588425665101075356e+04
1.577450000000000045e+03	1.580477746290874711e+04
1.575839999999999918e+03	1.588583653182478702e+04
1.574220000000000027e+03	1.586892082346111420e+04
1.572599999999999909e+03	1.594279492419969210e+04
1.570970000000000027e+03	1.617571998510468984e+04
1.569349999999999909e+03	1.612839594249353650e+04
1.567730000000000018e+03	1.621443590398669403e+04
1.566109999999999900e+03	1.633468128094074200e+04
1.564490000000000009e+03	1.640727503795992743e+04
1.562869999999999891e+03	1.628550947512585299e+04
1.561240000000000009e+03	1.649025952046102611e+04
1.559619999999999891e+03	1.638353427429789372e+04
1.558000000000000000e+03	1.636319999924457807e+04
1.556369999999999891e+03	1.642448278534326892e+04
1.554750000000000000e+03	1.639305212491372004e+04
1.553119999999999891e+03	1.622681589988218002e+04
1.551500000000000000e+03	1.644319525354408324e+04
1.549869999999999891e+03	1.640550000662221646e+04
1.548250000000000000e+03	1.636672153927661202e+04
1.546619999999999891e+03	1.652722685636398819e+04
1.545000000000000000e+03	1.631387050598353926e+04
1.543369999999999891e+03	1.632865595331560144e+04
1.541740000000000009e+03	1.632368038158801755e+04
1.540119999999999891e+03	1.655078737774946057e+04
1.538490000000000009e+03	1.633712435612991067e+04
1.536859999999999900e+03	1.621800634594316034e+04
1.535230000000000018e+03	1.632888635407263428e+04
1.533599999999999909e+03	1.625102097013186358e+04
1.531970000000000027e+03	1.622650384532935641e+04
1.530339999999999918e+03	1.624351948861122582e+04
1.528710000000000036e+03	1.619841088811010741e+04
1.527079999999999927e+03	1.634271875011863085e+04
1.525450000000000045e+03	1.604677097932090146e+04
1.523819999999999936e+03	1.624136678750774627e+04
1.522190000000000055e+03	1.602328424084304970e+04
1.520559999999999945e+03	1.625245551822212838e+04
1.518930000000000064e+03	1.620588194317131456e+04
1.517299999999999955e+03	1.627607603720965926e+04
1.515660000000000082e+03	1.615892737165126528e+04
1.514029999999999973e+03	1.628527098671640852e+04
1.512400000000000091e+03	1.626315979931791117e+04
1.510759999999999991e+03	1.615346226388670584e+04
1.509130000000000109e+03	1.613731612838054934e+04
1.507490000000000009e+03	1.606441973677641727e+04
1.505859999999999900e+03	1.594912529047578937e+04
1.504220000000000027e+03	1.596410000207254416e+04
1.502589999999999918e+03	1.603405462285906469e+04
1.500950000000000045e+03	1.601068005094319233e+04
1.499319999999999936e+03	1.601498740445559633e+04
1.497680000000000064e+03	1.609195403813753182e+04
1.496039999999999964e+03	1.598416529978927792e+04
1.494410000000000082e+03	1.605900865886433530e+04
1.492769999999999982e+03	1.630660935266661363e+04
1.491130000000000109e+03	1.626917870176655379e+04
1.489490000000000009e+03	1.642659657876916390e+04
1.487849999999999909e+03	1.644885628707084470e+04
1.486210000000000036e+03	1.636016210246044284e+04
1.484569999999999936e+03	1.643647757311707392e+04
1.482930000000000064e+03	1.648119922902173857e+04
1.481289999999999964e+03	1.638596536233527513e+04
1.479650000000000091e+03	1.635440021052762131e+04
1.478009999999999991e+03	1.632994418862997190e+04
1.476369999999999891e+03	1.618674033198473626e+04
1.474730000000000018e+03	1.627557726329349134e+04
1.473089999999999918e+03	1.620390000002728266e+04
1.471450000000000045e+03	1.620813938251734726e+04
1.469799999999999955e+03	1.611400017489259517e+04
1.468160000000000082e+03	1.628014462897696103e+04
1.466519999999999982e+03	1.631242000117859789e+04
1.464869999999999891e+03	1.629962433927771963e+04
1.463230000000000018e+03	1.641914002323195018e+04
1.461579999999999927e+03	1.650501646975054246e+04
1.459940000000000055e+03	1.624778045109313643e+04
1.458289999999999964e+03	1.620849076906698792e+04
1.456650000000000091e+03	1.620762011690833970e+04
1.455000000000000000e+03	1.625122332934166479e+04
1.453359999999999900e+03	1.630375925933946201e+04
1.451710000000000036e+03	1.621256155906038475e+04
1.450059999999999945e+03	1.617460330678005994e+04
1.448410000000000082e+03	1.625016825400371090e+04
1.446769999999999982e+03	1.612620620061338741e+04
1.445119999999999891e+03	1.607084953681612751e+04
1.443470000000000027e+03	1.594937225262310494e+04
1.441819999999999936e+03	1.610265729128850217e+04
1.440170000000000073e+03	1.617757638464489173e+04
1.438519999999999982e+03	1.605675990819767503e+04
1.436869999999999891e+03	1.597215034593953169e+04
1.435220000000000027e+03	1.611505997062640745e+04
1.433569999999999936e+03	1.623600517848329400e+04
1.431920000000000073e+03	1.632587959989826413e+04
1.430269999999999982e+03	1.631278476688000592e+04
1.428619999999999891e+03	1.638756050530968787e+04
1.426960000000000036e+03	1.653377721856076460e+04
1.425309999999999945e+03	1.661406191976284754e+04
1.423660000000000082e+03	1.669690068455261644e+04
1.422009999999999991e+03	1.673092867293584277e+04
1.420349999999999909e+03	1.667798029679811589e+04
1.418700000000000045e+03	1.683359443333845047e+04
1.417039999999999964e+03	1.665198068697182680e+04
1.415390000000000100e+03	1.654787803322243781e+04
1.413730000000000018e+03	1.670870213375264575e+04
1.412079999999999927e+03	1.651083031116401980e+04
1.410420000000000073e+03	1.647308739560164395e+04
1.408769999999999982e+03	1.640718062934933914e+04
1.407109999999999900e+03	1.639128514347573946e+04
1.405450000000000045e+03	1.630224321198457983e+04
1.403799999999999955e+03	1.643843030580644700e+04
1.402140000000000100e+03	1.653140558896572838e+04
1.400480000000000018e+03	1.662817824855533763e+04
1.398819999999999936e+03	1.656640170296553697e+04
1.397160000000000082e+03	1.653364016321778399e+04
1.395500000000000000e+03	1.670832701643511609e+04
1.393839999999999918e+03	1.695890721900857898e+04
1.392180000000000064e+03	1.692258359832666247e+04
1.390519999999999982e+03	1.706081792495521222e+04
1.388859999999999900e+03	1.720033963268066145e+04
1.387200000000000045e+03	1.714948190018792229e+04
1.385539999999999964e+03	1.714524807328085080e+04
1.383880000000000109e+03	1.721075344891774512e+04
1.382220000000000027e+03	1.697695078780269978e+04
1.380559999999999945e+03	1.709883939721472416e+04
1.378890000000000100e+03	1.716290330175565032e+04
1.377230000000000018e+03	1.710379170966851962e+04
1.375569999999999936e+03	1.694756190836993846e+04
1.373900000000000091e+03	1.699555854179742164e+04
1.372240000000000009e+03	1.689268560827126930e+04
1.370569999999999936e+03	1.695167456466479416e+04
1.368910000000000082e+03	1.695432209785496161e+04
1.367240000000000009e+03	1.704215727644435174e+04
1.365579999999999927e+03	1.681897123080709571e+04
1.363910000000000082e+03	1.698143330467888882e+04
1.362240000000000009e+03	1.690614001714465849e+04
1.360579999999999927e+03	1.699867496284581284e+04
1.358910000000000082e+03	1.711242076912688208e+04
1.357240000000000009e+03	1.709971854041214465e+04
1.355569999999999936e+03	1.699715087389053588e+04
1.353900000000000091e+03	1.714148109515029500e+04
1.352240000000000009e+03	1.689771199688842171e+04
1.350569999999999936e+03	1.704616918174497187e+04
1.348900000000000091e+03	1.713649792788971536e+04
1.347230000000000018e+03	1.697202482967346441e+04
1.345559999999999945e+03	1.695738059053549659e+04
1.343890000000000100e+03	1.701253926867459813e+04
1.342220000000000027e+03	1.695242054859304699e+04
1.340539999999999964e+03	1.691084659305365494e+04
1.338869999999999891e+03	1.695829830083132401e+04
1.337200000000000045e+03	1.691144191139298346e+04
1.335529999999999973e+03	1.694318813462355320e+04
1.333849999999999909e+03	1.699153468399372287e+04
1.332180000000000064e+03	1.675166532419903160e+04
1.330509999999999991e+03	1.672090221971325082e+04
1.328829999999999927e+03	1.678719642281854613e+04
1.327160000000000082e+03	1.664171959025220349e+04
1.325480000000000018e+03	1.654700042600625602e+04
1.323809999999999945e+03	1.671062668498283529e+04
1.322130000000000109e+03	1.663062197977688265e+04
1.320460000000000036e+03	1.679159306914209083e+04
1.318779999999999973e+03	1.671173350183143702e+04
1.317109999999999900e+03	1.677805980403772628e+04
1.315430000000000064e+03	1.680218012123693552e+04
1.313750000000000000e+03	1.678864391284820522e+04
1.312069999999999936e+03	1.678983863963004842e+04
1.310390000000000100e+03	1.677286898595360981e+04
1.308720000000000027e+03	1.692098068999591123e+04
1.307039999999999964e+03	1.665061301458442904e+04
1.305359999999999900e+03	1.667997706767100681e+04
1.303680000000000064e+03	1.653530984520065249e+04
1.302000000000000000e+03	1.652682235851790028e+04
1.300319999999999936e+03	1.666757987872778176e+04
1.298640000000000100e+03	1.670932061738426273e+04
1.296960000000000036e+03	1.660641142754939938e+04
1.295269999999999982e+03	1.643101188463242215e+04
1.293589999999999918e+03	1.641205938528028128e+04
1.291910000000000082e+03	1.610612446537847791e+04
1.290230000000000018e+03	1.617634526134192492e+04
1.288539999999999964e+03	1.615810090574793321e+04
1.286859999999999900e+03	1.600233846081603224e+04
1.285180000000000064e+03	1.583539978201970007e+04
1.283490000000000009e+03	1.596138141696814819e+04
1.281809999999999945e+03	1.591996119493565129e+04
1.280119999999999891e+03	1.596271726713277531e+04
1.278440000000000055e+03	1.592840503487584647e+04
1.276750000000000000e+03	1.602734574559015164e+04
1.275069999999999936e+03	1.623819948244480111e+04
1.273380000000000109e+03	1.626136414820281243e+04
1.271690000000000055e+03	1.630914662813735413e+04
1.270009999999999991e+03	1.623082743152375588e+04
1.268319999999999936e+03	1.636138045540828898e+04
1.266630000000000109e+03	1.658889606627520698e+04
1.264940000000000055e+03	1.661869468681337457e+04
1.263250000000000000e+03	1.688081469368550825e+04
1.261559999999999945e+03	1.717239788091872833e+04
1.259869999999999891e+03	1.747142068171955543e+04
1.258180000000000064e+03	1.793034177327959696e+04
1.256490000000000009e+03	1.803458022795799843e+04
1.254799999999999955e+03	1.834507736443993781e+04
1.253109999999999900e+03	1.874942011437398105e+04
1.251420000000000073e+03	1.901473046070514829e+04
1.249730000000000018e+03	1.900500524054004927e+04
1.248039999999999964e+03	1.935649389041784889e+04
1.246339999999999918e+03	1.914675572385923442e+04
1.244650000000000091e+03	1.929809946189910988e+04
1.242960000000000036e+03	1.924032281926156793e+04
1.241259999999999991e+03	1.908672625525393960e+04
1.239569999999999936e+03	1.894457195611663701e+04
1.237880000000000109e+03	1.863016038683380611e+04
1.236180000000000064e+03	1.841598070123180514e+04
1.234490000000000009e+03	1.835212516505834355e+04
1.232789999999999964e+03	1.794869360046259681e+04
1.231089999999999918e+03	1.760691886231433455e+04
1.229400000000000091e+03	1.727565740052936962e+04
1.227700000000000045e+03	1.695010031250521934e+04
1.226000000000000000e+03	1.689438269597217004e+04
1.224309999999999945e+03	1.639770143540243589e+04
1.222609999999999900e+03	1.630771225289637005e+04
1.220910000000000082e+03	1.606914879119271609e+04
1.219210000000000036e+03	1.597709966677001285e+04
1.217509999999999991e+03	1.582087920612822018e+04
1.215809999999999945e+03	1.559374769792537882e+04
1.214109999999999900e+03	1.556979224739004349e+04
1.212410000000000082e+03	1.550011869421079427e+04
1.210710000000000036e+03	1.543614478989089184e+04
1.209009999999999991e+03	1.547055947122831640e+04
1.207309999999999945e+03	1.535578386457211491e+04
1.205609999999999900e+03	1.544754615831502088e+04
1.203900000000000091e+03	1.533064839875774669e+04
1.202200000000000045e+03	1.533570416175429636e+04
1.200500000000000000e+03	1.549927627166316051e+04
1.198799999999999955e+03	1.556964014871941436e+04
1.197089999999999918e+03	1.559481995400675441e+04
1.195390000000000100e+03	1.570504666445879047e+04
1.193680000000000064e+03	1.607746666922618169e+04
1.191980000000000018e+03	1.618534591280847599e+04
1.190269999999999982e+03	1.626202461035068336e+04
1.188569999999999936e+03	1.639623541312806992e+04
1.186859999999999900e+03	1.643500141023832839e+04
1.185160000000000082e+03	1.656231996496931970e+04
1.183450000000000045e+03	1.667589965863444377e+04
1.181740000000000009e+03	1.668386040054984187e+04
1.180029999999999973e+03	1.659393899940808114e+04
1.178329999999999927e+03	1.641206161495077322e+04
1.176619999999999891e+03	1.617377777659552521e+04
1.174910000000000082e+03	1.587906110906623690e+04
1.173200000000000045e+03	1.563290015307866270e+04
1.171490000000000009e+03	1.543087999974601917e+04
1.169779999999999973e+03	1.518283935433587430e+04
1.168069999999999936e+03	1.488140322623389147e+04
1.166359999999999900e+03	1.472013935925092301e+04
1.164650000000000091e+03	1.454296608991890753e+04
1.162940000000000055e+03	1.434553111378267386e+04
1.161220000000000027e+03	1.451248329446376374e+04
1.159509999999999991e+03	1.434912746761374547e+04
1.157799999999999955e+03	1.445538647793275959e+04
1.156089999999999918e+03	1.415170157546242626e+04
1.154369999999999891e+03	1.426813999567029168e+04
1.152660000000000082e+03	1.434652081833415650e+04
1.150940000000000055e+03	1.439965974671728691e+04
1.149230000000000018e+03	1.436619480074540479e+04
1.147509999999999991e+03	1.427623679060281756e+04
1.145799999999999955e+03	1.435490840077466237e+04
1.144079999999999927e+03	1.412693573896581074e+04
1.142369999999999891e+03	1.419981277815115754e+04
1.140650000000000091e+03	1.398473250969402761e+04
1.138930000000000064e+03	1.391512188510111264e+04
1.137220000000000027e+03	1.388449439927311687e+04
1.135500000000000000e+03	1.364936391089028075e+04
1.133779999999999973e+03	1.365055872457408441e+04
1.132059999999999945e+03	1.350632004505204350e+04
1.130339999999999918e+03	1.356017948936868015e+04
1.128619999999999891e+03	1.346346245748680303e+04
1.126900000000000091e+03	1.356505563803204859e+04
1.125180000000000064e+03	1.345470219545705731e+04
1.123460000000000036e+03	1.339376426584701039e+04
1.121740000000000009e+03	1.347253066559548279e+04
1.120019999999999982e+03	1.343796999995813530e+04
1.118299999999999955e+03	1.352549404698306716e+04
1.116579999999999927e+03	1.355468094221956017e+04
1.114849999999999909e+03	1.353219817893161053e+04
1.113130000000000109e+03	1.353046983506224933e+04
1.111410000000000082e+03	1.356892290006995972e+04
1.109680000000000064e+03	1.337143459265209640e+04
1.107960000000000036e+03	1.337487625268850206e+04
1.106240000000000009e+03	1.342487976417776008e+04
1.104509999999999991e+03	1.340315874826420622e+04
1.102789999999999964e+03	1.330193860946773202e+04
1.101059999999999945e+03	1.325546758000418231e+04
1.099329999999999927e+03	1.337720987303827496e+04
1.097609999999999900e+03	1.329774497688496740e+04
1.095880000000000109e+03	1.329193757543256834e+04
1.094150000000000091e+03	1.329042154553890032e+04
1.092430000000000064e+03	1.332683949408473200e+04
1.090700000000000045e+03	1.334108066392395995e+04
1.088970000000000027e+03	1.329087711418090839e+04
1.087240000000000009e+03	1.316584566076810006e+04
1.085509999999999991e+03	1.320735277270631377e+04
1.083779999999999973e+03	1.308406746629270492e+04
1.082049999999999955e+03	1.315731274306377418e+04
1.080319999999999936e+03	1.313702832899085843e+04
1.078589999999999918e+03	1.327731109798755460e+04
1.076859999999999900e+03	1.314698534574166661e+04
1.075130000000000109e+03	1.315990072389621855e+04
1.073390000000000100e+03	1.324389501339569324e+04
1.071660000000000082e+03	1.314255994179291520e+04
1.069930000000000064e+03	1.308026923792080925e+04
1.068200000000000045e+03	1.318770731292214805e+04
1.066460000000000036e+03	1.300118594524624132e+04
1.064730000000000018e+03	1.293846835982590710e+04
1.062990000000000009e+03	1.310610872219708835e+04
1.061259999999999991e+03	1.304859755770845004e+04
1.059519999999999982e+03	1.293867338705051770e+04
1.057789999999999964e+03	1.309060926417673181e+04
1.056049999999999955e+03	1.319712598171173886e+04
1.054319999999999936e+03	1.331125781785085019e+04
1.052579999999999927e+03	1.331385082389953277e+04
1.050839999999999918e+03	1.328411847941197084e+04
1.049099999999999909e+03	1.359472483346336230e+04
1.047369999999999891e+03	1.367875211248562300e+04
1.045630000000000109e+03	1.384699271009758013e+04
1.043890000000000100e+03	1.380970349580573929e+04
1.042150000000000091e+03	1.384783909918586141e+04
1.040410000000000082e+03	1.371356002301012086e+04
1.038670000000000073e+03	1.355244001472560558e+04
1.036930000000000064e+03	1.339841969935207817e+04
1.035190000000000055e+03	1.321191971409251528e+04
1.033450000000000045e+03	1.311182383850358565e+04
1.031710000000000036e+03	1.319065286743612160e+04
1.029960000000000036e+03	1.321455281561686934e+04
1.028220000000000027e+03	1.328841815525117636e+04
1.026480000000000018e+03	1.316876782012080912e+04
1.024740000000000009e+03	1.332989958047440814e+04
1.022990000000000009e+03	1.318636217547216256e+04
1.021250000000000000e+03	1.303904633622575420e+04
1.019500000000000000e+03	1.310823784535772211e+04
1.017759999999999991e+03	1.296814016777558572e+04
1.016009999999999991e+03	1.290720047812936537e+04
1.014269999999999982e+03	1.295753685185529503e+04
1.012519999999999982e+03	1.283832922120783223e+04
1.010779999999999973e+03	1.288817191436460780e+04
1.009029999999999973e+03	1.281980357316383925e+04
1.007279999999999973e+03	1.271951844751632052e+04
1.005529999999999973e+03	1.263936161193285261e+04
1.003789999999999964e+03	1.263964180222824325e+04
1.002039999999999964e+03	1.262247700676145905e+04
1.000289999999999964e+03	1.247170015124352176e+04
9.985380000000000109e+02	1.257671820199571448e+04
9.967889999999999873e+02	1.259182472468068045e+04
9.950389999999999873e+02	1.260329159803801849e+04
9.932880000000000109e+02	1.241514299533875237e+04
9.915370000000000346e+02	1.228950752434707283e+04
9.897859999999999445e+02	1.233767201844889860e+04
9.880340000000001055e+02	1.230784315436704856e+04
9.862820000000000391e+02	1.240533991255664660e+04
9.845290000000001100e+02	1.242590208466391778e+04
9.827759999999999536e+02	1.250296944605883255e+04
9.810230000000000246e+02	1.235399707830306215e+04
9.792690000000000055e+02	1.241027120756347358e+04
9.775149999999999864e+02	1.233821530802534835e+04
9.757600000000001046e+02	1.216100436320822155e+04
9.740050000000001091e+02	1.222077986035860886e+04
9.722500000000000000e+02	1.227264163385946085e+04
9.704940000000000282e+02	1.238085382826134810e+04
9.687380000000000564e+02	1.226251890995341091e+04
9.669810000000001082e+02	1.213803210389083324e+04
9.652240000000000464e+02	1.225953330877005828e+04
9.634669999999999845e+02	1.226562066915514697e+04
9.617089999999999463e+02	1.225933972492364774e+04
9.599510000000000218e+02	1.220664122662095906e+04
9.581920000000000073e+02	1.223024373389790708e+04
9.564330000000001064e+02	1.230355312496322222e+04
9.546730000000000018e+02	1.221794148630966083e+04
9.529130000000000109e+02	1.212051998965658640e+04
9.511530000000000200e+02	1.209440029474875701e+04
9.493920000000000528e+02	1.215467993998100610e+04
9.476309999999999718e+02	1.218333325085777869e+04
9.458700000000000045e+02	1.214293027440735386e+04
9.441079999999999472e+02	1.222555650777720075e+04
9.423450000000000273e+02	1.212880015640286365e+04
9.405829999999999700e+02	1.215984425366506002e+04
9.388189999999999600e+02	1.227487662369323516e+04
9.370560000000000400e+02	1.214162851591822800e+04
9.352920000000000300e+02	1.232698901898289478e+04
9.335270000000000437e+02	1.224760049470763261e+04
9.317630000000000337e+02	1.255398591605730689e+04
9.299969999999999573e+02	1.263893918267996014e+04
9.282319999999999709e+02	1.287237147227845708e+04
9.264660000000000082e+02	1.298648054184965804e+04
9.246989999999999554e+02	1.303189985996555151e+04
9.229320000000000164e+02	1.308490527568494690e+04
9.211649999999999636e+02	1.316924905073866285e+04
9.193970000000000482e+02	1.301346258465394749e+04
9.176290000000000191e+02	1.286100002229437632e+04
9.158610000000001037e+02	1.281618067846915983e+04
9.140919999999999845e+02	1.279043517903076463e+04
9.123220000000000027e+02	1.262854098362188779e+04
9.105520000000000209e+02	1.245846044274124870e+04
9.087820000000000391e+02	1.236293969270325761e+04
9.070119999999999436e+02	1.223615758198572621e+04
9.052409999999999854e+02	1.209258581749204677e+04
9.034690000000000509e+02	1.206467865183454342e+04
9.016970000000000027e+02	1.200468036028932147e+04
8.999249999999998408e+02	1.194709622248258347e+04
8.981520000000000437e+02	1.184602608996835261e+04
8.963790000000000191e+02	1.180289811756391100e+04
8.946059999999999945e+02	1.168752038895749502e+04
8.928319999999999936e+02	1.167686425563602825e+04
8.910579999999999927e+02	1.173509032420604854e+04
8.892830000000000155e+02	1.160100092110425248e+04
8.875080000000000382e+02	1.155178091523280818e+04
8.857319999999998572e+02	1.161893420331540074e+04
8.839560000000000173e+02	1.155823977384381578e+04
8.821799999999998363e+02	1.147004018770008042e+04
8.804030000000000200e+02	1.148489819428342344e+04
8.786259999999998627e+02	1.143163561012642822e+04
8.768479999999998427e+02	1.138040628283025944e+04
8.750700000000000500e+02	1.152343932026985931e+04
8.732910000000000537e+02	1.142942291449610275e+04
8.715119999999998299e+02	1.134160397864179504e+04
8.697329999999998336e+02	1.142945999163481429e+04
8.679529999999998608e+02	1.149269712417074334e+04
8.661730000000000018e+02	1.137090279925741015e+04
8.643920000000000528e+02	1.130098218697926495e+04
8.626109999999999900e+02	1.134335860247962228e+04
8.608300000000000409e+02	1.128926873568465635e+04
8.590480000000000018e+02	1.139600033733668897e+04
8.572659999999998490e+02	1.146241996474668849e+04
8.554829999999998336e+02	1.133477496982701632e+04
8.537000000000000455e+02	1.147668872460520288e+04
8.519170000000000300e+02	1.148058005842439161e+04
8.501330000000000382e+02	1.146650424355209543e+04
8.483479999999998427e+02	1.154897142323314984e+04
8.465639999999998508e+02	1.147018009321387399e+04
8.447780000000000200e+02	1.144466473886822860e+04
8.429930000000000518e+02	1.161588799798618493e+04
8.412069999999999936e+02	1.163334099591918130e+04
8.394199999999998454e+02	1.169958184659115068e+04
8.376330000000000382e+02	1.175812321891917782e+04
8.358460000000000036e+02	1.163892438392680015e+04
8.340579999999999927e+02	1.181391047152779174e+04
8.322699999999999818e+02	1.169826818149787505e+04
8.304819999999998572e+02	1.163588069445920155e+04
8.286929999999999836e+02	1.169065395964725940e+04
8.269030000000000200e+02	1.163073239278793153e+04
8.251130000000000564e+02	1.172667964834008490e+04
8.233229999999998654e+02	1.168649659974597307e+04
8.215330000000000155e+02	1.160623409603026266e+04
8.197409999999999854e+02	1.177849999812783790e+04
8.179500000000000455e+02	1.175325069864945362e+04
8.161580000000000155e+02	1.182511261281419502e+04
8.143659999999999854e+02	1.193368142114271905e+04
8.125729999999998654e+02	1.231472061722630679e+04
8.107799999999998590e+02	1.257696480600466384e+04
8.089859999999999900e+02	1.313079833044166116e+04
8.071920000000000073e+02	1.379079690130292147e+04
8.053980000000000246e+02	1.448550028017942896e+04
8.036029999999998381e+02	1.532790072066304492e+04
8.018070000000000164e+02	1.601395051015499666e+04
8.000119999999998299e+02	1.630130175181664163e+04
7.982150000000000318e+02	1.655982810198945663e+04
7.964189999999999827e+02	1.623311763911129674e+04
7.946219999999998436e+02	1.543695543950793763e+04
7.928239999999998417e+02	1.480359305448955274e+04
7.910270000000000437e+02	1.380906068407386738e+04
7.892279999999998381e+02	1.318738010953637422e+04
7.874299999999998363e+02	1.247606261132592408e+04
7.856299999999999955e+02	1.191045687516717226e+04
7.838310000000000173e+02	1.149078694402348083e+04
7.820309999999998354e+02	1.129461963056587228e+04
7.802300000000000182e+02	1.104616051995839007e+04
7.784299999999998363e+02	1.086242095299620814e+04
7.766280000000000427e+02	1.085195631678545396e+04
7.748269999999999982e+02	1.076739894256768639e+04
7.730249999999998636e+02	1.064400107370930345e+04
7.712219999999999800e+02	1.063469431369778431e+04
7.694189999999999827e+02	1.066708001440646694e+04
7.676159999999999854e+02	1.076655940643542453e+04
7.658120000000000118e+02	1.055572499872109984e+04
7.640080000000000382e+02	1.059491437230005067e+04
7.622029999999998608e+02	1.055215641939848865e+04
7.603980000000000246e+02	1.045694443932606373e+04
7.585919999999999845e+02	1.057803982571728011e+04
7.567859999999998308e+02	1.043606036433386544e+04
7.549800000000000182e+02	1.047467236533603136e+04
7.531730000000000018e+02	1.046776001004617319e+04
7.513659999999999854e+02	1.042148172053042617e+04
7.495579999999999927e+02	1.042818016677480409e+04
7.477500000000000000e+02	1.043077631144783663e+04
7.459410000000000309e+02	1.039262651090197869e+04
7.441319999999998345e+02	1.043989180003869114e+04
7.423229999999998654e+02	1.027469614005643780e+04
7.405130000000000337e+02	1.036061675946751348e+04
7.387029999999998608e+02	1.027550466068827518e+04
7.368920000000000528e+02	1.020546007861251019e+04
7.350810000000000173e+02	1.022537916813569427e+04
7.332699999999999818e+02	1.026004000689778695e+04
7.314579999999998563e+02	1.025733539466315779e+04
7.296449999999999818e+02	1.018956002625725705e+04
7.278319999999999936e+02	1.018428597163929953e+04
7.260190000000000055e+02	1.009662057117039694e+04
7.242050000000000409e+02	1.027488121985245743e+04
7.223909999999998490e+02	1.025156091199918956e+04
7.205769999999999982e+02	1.029040459749477668e+04
7.187619999999999436e+02	1.016446127246548349e+04
7.169460000000000264e+02	1.024673334835180503e+04
7.151299999999999955e+02	1.024921961815147006e+04
7.133139999999999645e+02	1.019925200150755518e+04
7.114969999999999573e+02	1.036249934503297482e+04
7.096799999999999500e+02	1.036553927391253092e+04
7.078630000000000564e+02	1.032576043934853260e+04
7.060449999999999591e+02	1.041608666344743324e+04
7.042259999999999991e+02	1.036894013389613974e+04
7.024070000000000391e+02	1.049397784377217249e+04
7.005879999999999654e+02	1.052451999234369941e+04
6.987680000000000291e+02	1.032845257871833383e+04
6.969479999999999791e+02	1.036929993505540551e+04
6.951269999999999527e+02	1.043451202368787563e+04
6.933060000000000400e+02	1.035822184885067509e+04
6.914850000000000136e+02	1.039136905272689728e+04
6.896630000000000109e+02	1.029456363458302258e+04
6.878410000000000082e+02	1.035653559855824096e+04
6.860180000000000291e+02	1.043430555122216174e+04
6.841950000000000500e+02	1.050433309811235267e+04
6.823709999999999809e+02	1.028491400245507066e+04
6.805470000000000255e+02	1.029627897980674970e+04
6.787219999999999800e+02	1.028644000514972504e+04
6.768970000000000482e+02	1.027116000007306502e+04
6.750720000000000027e+02	1.029983139693528028e+04
6.732459999999999809e+02	1.013774037052815947e+04
6.714199999999999591e+02	1.002668434071359297e+04
6.695929999999999609e+02	1.007957759170887221e+04
6.677659999999999627e+02	1.004063869202960268e+04
6.659379999999999882e+02	9.962409051832943078e+03
6.641100000000000136e+02	1.004351954952107553e+04
6.622820000000000391e+02	9.985148910535755931e+03
6.604529999999999745e+02	9.925938844865931969e+03
6.586230000000000473e+02	9.784193584983224355e+03
6.567939999999999827e+02	9.901471223707654644e+03
6.549629999999999654e+02	9.862162850654129215e+03
6.531330000000000382e+02	9.946078924317564088e+03
6.513020000000000209e+02	1.001937999859106276e+04
6.494700000000000273e+02	9.941662946263626509e+03
6.476380000000000337e+02	9.914540675397967789e+03
6.458060000000000400e+02	9.967778606904530534e+03
6.439729999999999563e+02	9.995241111428787917e+03
6.421399999999999864e+02	1.006946000795524378e+04
6.403060000000000400e+02	1.018769825059315554e+04
6.384719999999999800e+02	1.018475841234331529e+04
6.366369999999999436e+02	1.006736384243146676e+04
6.348020000000000209e+02	1.000206631345161259e+04
6.329669999999999845e+02	9.739140115132973733e+03
6.311309999999999718e+02	9.675114627032238786e+03
6.292939999999999827e+02	9.690385136115395653e+03
6.274569999999999936e+02	9.753217696533412891e+03
6.256200000000000045e+02	9.611397991022864517e+03
6.237820000000000391e+02	9.726278609672091989e+03
6.219439999999999600e+02	9.663573930378206569e+03
6.201059999999999945e+02	9.375100674210283614e+03
6.182670000000000528e+02	9.437139775358393308e+03
6.164270000000000209e+02	9.346271429054053442e+03
6.145869999999999891e+02	9.342148844564633691e+03
6.127469999999999573e+02	9.215580573550434565e+03
6.109059999999999491e+02	9.299262557947564346e+03
6.090650000000000546e+02	9.223707794562433264e+03
6.072229999999999563e+02	9.394199210291471900e+03
6.053809999999999718e+02	9.547559731185152486e+03
6.035380000000000109e+02	9.584278512784561826e+03
6.016950000000000500e+02	9.606182628935859611e+03
5.998519999999999754e+02	9.780285659182623931e+03
5.980080000000000382e+02	9.712842397799189712e+03
5.961639999999999873e+02	9.708100054697244559e+03
5.943189999999999600e+02	9.774719636063531652e+03
5.924740000000000464e+02	9.773058859693470367e+03
5.906280000000000427e+02	9.652620787367486628e+03
5.887820000000000391e+02	9.570858606310708637e+03
5.869349999999999454e+02	9.522860489416369091e+03
5.850879999999999654e+02	9.522000492458475492e+03
5.832409999999999854e+02	9.453664503276599135e+03
5.813930000000000291e+02	9.221634394877273735e+03
5.795449999999999591e+02	9.381518884812130636e+03
5.776960000000000264e+02	9.332119962584823952e+03
5.758469999999999800e+02	9.484545845187360101e+03
5.739969999999999573e+02	9.340760047111853055e+03
5.721470000000000482e+02	9.231341457089660253e+03
5.702960000000000491e+02	9.238376704117625195e+03
5.684450000000000500e+02	9.196380100485856019e+03
5.665940000000000509e+02	9.145439776314791743e+03
5.647419999999999618e+02	9.162367906310286344e+03
5.628890000000000100e+02	9.220249238964379401e+03
5.610359999999999445e+02	9.071240327290744972e+03
5.591829999999999927e+02	9.266241358738272538e+03
5.573289999999999509e+02	9.140555667151482339e+03
5.554750000000000227e+02	9.116138139408396455e+03
5.536209999999999809e+02	9.020381316813345620e+03
5.517659999999999627e+02	9.060463890646380605e+03
5.499099999999999682e+02	9.165273117603384890e+03
5.480539999999999736e+02	9.040280067360425164e+03
5.461979999999999791e+02	8.983982612724403225e+03
5.443410000000000082e+02	9.097873284879731727e+03
5.424829999999999472e+02	9.125403194864074976e+03
5.406259999999999764e+02	9.103079986174669102e+03
5.387670000000000528e+02	8.978971887629519188e+03
5.369089999999999918e+02	9.103856943586451962e+03
5.350499999999999545e+02	8.907487594613126930e+03
5.331900000000000546e+02	8.878299991363146546e+03
5.313300000000000409e+02	8.876502158328243240e+03
5.294700000000000273e+02	8.842949079034367969e+03
5.276090000000000373e+02	8.742311719641171294e+03
5.257469999999999573e+02	8.906859769205591874e+03
5.238849999999999909e+02	8.739064408068608827e+03
5.220230000000000246e+02	8.711405138351758069e+03
5.201599999999999682e+02	8.766747199881152483e+03
5.182970000000000255e+02	8.543221756197694049e+03
5.164339999999999691e+02	8.577520207195009789e+03
5.145700000000000500e+02	8.691751165111601949e+03
5.127050000000000409e+02	8.569408451042367233e+03
5.108399999999999750e+02	8.556160117637955409e+03
5.089750000000000227e+02	8.542179980255452392e+03
5.071089999999999804e+02	8.400864320133396177e+03
5.052420000000000186e+02	8.454112340601081087e+03
5.033750000000000000e+02	8.466626468988259148e+03
5.015079999999999814e+02	8.485935921956142920e+03
4.996399999999999864e+02	8.391760009732945036e+03
4.977719999999999914e+02	8.517255010033364670e+03
4.959039999999999964e+02	8.506446327312183712e+03
4.940350000000000250e+02	8.543098124148687930e+03
4.921650000000000205e+02	8.561460208661968863e+03
4.902950000000000159e+02	8.510999937824753943e+03
4.884250000000000114e+02	8.444323227324615800e+03
4.865539999999999736e+02	8.563347657209866156e+03
4.846820000000000164e+02	8.496594579752463687e+03
4.828100000000000023e+02	8.562609692289666782e+03
4.809379999999999882e+02	8.531603540092695766e+03
4.790649999999999977e+02	8.662879759771010868e+03
4.771920000000000073e+02	8.516964941651622212e+03
4.753190000000000168e+02	8.528316519736739792e+03
4.734440000000000168e+02	8.584601964715493523e+03
4.715699999999999932e+02	8.601256057942555344e+03
4.696949999999999932e+02	8.526662055214806969e+03
4.678190000000000168e+02	8.535939999726115275e+03
4.659429999999999836e+02	8.420901233963484628e+03
4.640670000000000073e+02	8.417803454192195204e+03
4.621899999999999977e+02	8.455865628603951336e+03
4.603129999999999882e+02	8.268956860138558113e+03
4.584350000000000023e+02	8.280809667928393537e+03
4.565570000000000164e+02	8.120462548502620848e+03
4.546779999999999973e+02	8.161219973307472173e+03
4.527989999999999782e+02	8.131741866347470022e+03
4.509189999999999827e+02	8.189837318582884109e+03
4.490389999999999873e+02	8.172679624994130791e+03
4.471589999999999918e+02	8.107540829337807736e+03
4.452780000000000200e+02	8.121961842430400793e+03
4.433960000000000150e+02	8.240520042187101353e+03
4.415140000000000100e+02	8.287659205508742161e+03
4.396320000000000050e+02	8.153640004470415988e+03
4.377490000000000236e+02	8.128600772035222690e+03
4.358659999999999854e+02	8.238776988114630512e+03
4.339820000000000277e+02	8.187737945041607418e+03
4.320980000000000132e+02	8.127093181165548231e+03
4.302130000000000223e+02	8.269740521802417788e+03
4.283279999999999745e+02	8.201780420488184973e+03
4.264420000000000073e+02	8.319941328620519926e+03
4.245559999999999832e+02	8.107571040415454263e+03
4.226689999999999827e+02	8.375097378166585258e+03
4.207819999999999823e+02	8.230900026384648299e+03
4.188949999999999818e+02	8.329418840818036188e+03
4.170070000000000050e+02	8.321379660244107072e+03
4.151190000000000282e+02	8.236724210563012093e+03
4.132300000000000182e+02	8.252853312854056639e+03
4.113399999999999750e+02	8.156165693126608858e+03
4.094510000000000218e+02	8.139578271859058077e+03
4.075600000000000023e+02	8.112519679127925883e+03
4.056700000000000159e+02	8.007097682840937523e+03
4.037780000000000200e+02	7.868864591120499426e+03
4.018870000000000005e+02	7.837276250227342643e+03
3.999950000000000045e+02	7.741882574709279652e+03
3.981019999999999754e+02	7.695817907379971075e+03
3.962090000000000032e+02	7.580621273903183464e+03
3.943149999999999977e+02	7.643359706577584802e+03
3.924209999999999923e+02	7.471480024322010649e+03
3.905269999999999868e+02	7.426259330267568657e+03
3.886320000000000050e+02	7.320922581974366040e+03
3.867370000000000232e+02	7.485294605840904296e+03
3.848410000000000082e+02	7.294445425280978270e+03
3.829440000000000168e+02	7.317098833861775347e+03
3.810480000000000018e+02	7.319495308896880488e+03
3.791499999999999773e+02	7.134586485327320588e+03
3.772529999999999859e+02	7.151917408484422594e+03
3.753539999999999850e+02	7.148337857515065480e+03
3.734560000000000173e+02	7.044042047633255606e+03
3.715570000000000164e+02	7.016182419537942224e+03
3.696569999999999823e+02	7.037273655341846279e+03
3.677570000000000050e+02	6.944166618536257374e+03
3.658559999999999945e+02	6.953755232990144577e+03
3.639549999999999841e+02	6.940044749913739906e+03
3.620539999999999736e+02	6.947112199743458405e+03
3.601519999999999868e+02	6.877551431413147839e+03
3.582490000000000236e+02	6.958668706680643481e+03
3.563460000000000036e+02	6.843486741972032178e+03
3.544429999999999836e+02	6.774037617884960127e+03
3.525389999999999873e+02	6.699378276352434114e+03
3.506349999999999909e+02	6.670166177219364727e+03
3.487300000000000182e+02	6.803075685292040362e+03
3.468249999999999886e+02	6.787557166276829776e+03
3.449189999999999827e+02	6.653665757131745522e+03
3.430129999999999768e+02	6.664155784915570621e+03
3.411059999999999945e+02	6.660203830709991053e+03
3.391990000000000123e+02	6.691135381176604824e+03
3.372909999999999968e+02	6.603544184212283653e+03
3.353829999999999814e+02	6.616416707722324645e+03
3.334750000000000227e+02	6.549982522153185528e+03
3.315649999999999977e+02	6.604798666578693883e+03
3.296560000000000059e+02	6.550600594369810096e+03
3.277459999999999809e+02	6.548299885790963344e+03
3.258349999999999795e+02	6.417380114671540468e+03
3.239239999999999782e+02	6.480578834343374183e+03
3.220129999999999768e+02	6.372842979228383228e+03
3.201009999999999991e+02	6.503036639120844484e+03
3.181890000000000214e+02	6.425158404273362976e+03
3.162760000000000105e+02	6.251927962087749620e+03
3.143629999999999995e+02	6.333352070928655849e+03
3.124490000000000123e+02	6.317405507785575537e+03
3.105339999999999918e+02	6.272350099540918563e+03
3.086200000000000045e+02	6.190097866902304304e+03
3.067040000000000077e+02	6.376722285696601830e+03
3.047889999999999873e+02	6.247470148970874106e+03
3.028720000000000141e+02	6.288976750036975318e+03
3.009560000000000173e+02	6.268200466242127732e+03
2.990389999999999873e+02	6.293940021101705497e+03
2.971209999999999809e+02	6.349299770614284171e+03
2.952029999999999745e+02	6.272560271050151641e+03
2.932839999999999918e+02	6.230943213838952943e+03
2.913650000000000091e+02	6.275851371141373420e+03
2.894460000000000264e+02	6.161788507379617840e+03
2.875260000000000105e+02	6.226620962416465773e+03
2.856050000000000182e+02	6.280851349022853356e+03
2.836840000000000259e+02	6.094664619777717235e+03
2.817629999999999768e+02	6.123120397500471881e+03
2.798410000000000082e+02	6.226479968433873182e+03
2.779180000000000064e+02	6.111681188158576333e+03
2.759950000000000045e+02	6.132818272204951427e+03
2.740720000000000027e+02	6.149839574061977146e+03
2.721480000000000246e+02	6.150462976288557002e+03
2.702239999999999895e+02	6.183016799372087917e+03
2.682989999999999782e+02	6.127819844516075136e+03
2.663729999999999905e+02	6.099180715318551847e+03
2.644479999999999791e+02	6.231099999824185943e+03
2.625210000000000150e+02	6.375459252244423624e+03
2.605939999999999941e+02	6.433943385842068892e+03
2.586669999999999732e+02	6.513733551427189013e+03
2.567389999999999759e+02	6.489166017991137778e+03
2.548110000000000070e+02	6.561296821954233565e+03
2.528820000000000050e+02	6.649461201034033365e+03
2.509530000000000030e+02	6.821259882897160423e+03
2.490240000000000009e+02	6.868323519076145203e+03
2.470929999999999893e+02	7.061952357025326819e+03
2.451630000000000109e+02	7.200851755987850993e+03
2.432319999999999993e+02	7.407226589280071494e+03
2.413000000000000114e+02	7.383285487588192154e+03
2.393679999999999950e+02	7.620599871816474661e+03
2.374350000000000023e+02	7.543526580900524095e+03
2.355020000000000095e+02	7.684174673975469886e+03
2.335689999999999884e+02	7.716435879210739586e+03
2.316339999999999861e+02	7.554921457250391541e+03
2.296999999999999886e+02	7.550020754848999786e+03
2.277649999999999864e+02	7.673336428578831146e+03
2.258290000000000077e+02	7.364237544536323185e+03
2.238930000000000007e+02	7.334579229879427658e+03
2.219569999999999936e+02	7.150635487069154806e+03
2.200200000000000102e+02	7.147476908829943568e+03
2.180819999999999936e+02	6.754503341015029946e+03
2.161440000000000055e+02	6.715786871127083032e+03
2.142059999999999889e+02	6.567934682346638510e+03
2.122669999999999959e+02	6.541230409209064419e+03
2.103280000000000030e+02	6.338340585296919016e+03
2.083880000000000052e+02	6.403177498261127766e+03
2.064470000000000027e+02	6.366782346852128285e+03
2.045060000000000002e+02	6.247716786721323842e+03
2.025649999999999977e+02	6.111362406141933207e+03
2.006229999999999905e+02	6.090559543477580519e+03
1.986810000000000116e+02	5.849862721552673975e+03
1.967379999999999995e+02	5.561216049511577694e+03
1.947940000000000111e+02	5.326785648372533615e+03
1.928499999999999943e+02	5.247619966949882837e+03
1.909060000000000059e+02	4.859729269160196964e+03
1.889610000000000127e+02	4.601147142628290567e+03
1.870159999999999911e+02	4.103760000004403082e+03
1.850699999999999932e+02	3.748000000000000000e+03
